# Trace with new flow correction algorithm (check git log on this file, the
# flow correction algorithm was added in the same commit).
#
# Demonstrates moderate flow drift, which we correct.
#
# $ pio run -t upload && utils/controller_debug.py -c 'set gui_mode 1' && \
#   utils/controller_debug.py -c 'trace start volume uncorrected_volume flow_correction' && \
#   sleep 60 && \
#   utils/controller_debug.py -c 'trace graph'
#
# Note that the blower was hardcoded to 75% power for this experiment (so I
# didn't wake up my housemates).  I haven't observed that this makes a
# difference.

time(sec)	volume	uncorrected_volume	flow_correction
0.000	105.966	1133.254	-21.052
0.010	99.826	1127.325	-21.052
0.020	93.909	1121.618	-21.052
0.030	88.055	1115.975	-21.052
0.040	82.058	1110.188	-21.052
0.050	76.236	1104.577	-21.052
0.060	70.897	1099.448	-21.052
0.070	65.862	1094.624	-21.052
0.080	60.830	1089.802	-21.052
0.090	56.004	1085.187	-21.052
0.100	51.469	1080.862	-21.052
0.110	47.035	1076.639	-21.052
0.120	43.188	1073.002	-21.052
0.130	40.329	1070.353	-21.052
0.140	38.171	1068.406	-21.052
0.150	36.316	1066.761	-21.052
0.160	34.672	1065.328	-21.052
0.170	33.005	1063.871	-21.052
0.180	31.325	1062.402	-21.052
0.190	29.754	1061.042	-21.052
0.200	28.263	1059.762	-21.052
0.210	26.775	1058.484	-21.052
0.220	25.321	1057.241	-21.052
0.230	23.943	1056.073	-21.052
0.240	22.625	1054.965	-21.052
0.250	21.409	1053.960	-21.052
0.260	20.349	1053.111	-21.052
0.270	19.448	1052.421	-21.052
0.280	18.660	1051.843	-21.052
0.290	17.961	1051.354	-21.052
0.300	17.283	1050.886	-21.052
0.310	16.660	1050.474	-21.052
0.320	16.127	1050.152	-21.052
0.330	15.617	1049.852	-21.052
0.340	15.247	1049.693	-21.052
0.350	15.036	1049.693	-21.052
0.360	14.820	1049.687	-21.052
0.370	14.588	1049.665	-21.052
0.380	14.445	1049.733	-21.052
0.390	14.257	1049.756	-21.052
0.400	13.952	1049.661	-21.052
0.410	13.663	1049.583	-21.052
0.420	13.447	1049.578	-21.052
0.430	13.301	1049.642	-21.052
0.440	13.215	1049.766	-21.052
0.450	13.108	1049.870	-21.052
0.460	12.955	1049.927	-21.052
0.470	12.763	1049.945	-21.052
0.480	12.523	1049.917	-21.052
0.490	12.342	1049.946	-21.052
0.500	12.147	1049.961	-21.052
0.510	11.941	1049.966	-21.052
0.520	11.777	1050.012	-21.052
0.530	11.583	1050.029	-21.052
0.540	11.388	1050.044	-21.052
0.550	11.185	1050.051	-21.052
0.560	10.968	1050.045	-21.052
0.570	10.794	1050.082	-21.052
0.580	10.637	1050.135	-21.052
0.590	10.410	1050.119	-21.052
0.600	10.130	1050.049	-21.052
0.610	9.880	1050.010	-21.052
0.620	9.663	1050.003	-21.052
0.630	9.399	1049.950	-21.052
0.640	9.023	1049.784	-21.052
0.650	8.726	1049.698	-21.052
0.660	8.574	1049.757	-21.052
0.670	8.403	1049.796	-21.052
0.680	8.108	1049.711	-21.052
0.690	7.851	1049.665	-21.052
0.700	7.735	1049.760	-21.052
0.710	7.601	1049.836	-21.052
0.720	7.467	1049.913	-21.052
0.730	7.383	1050.039	-21.052
0.740	7.329	1050.195	-21.052
0.750	7.353	1050.430	-21.052
0.760	7.386	1050.673	-21.052
0.770	7.348	1050.847	-21.052
0.780	7.273	1050.982	-21.052
0.790	7.232	1051.151	-21.052
0.800	7.283	1051.413	-21.052
0.810	7.283	1051.623	-21.052
0.820	7.254	1051.806	-21.052
0.830	7.276	1052.037	-21.052
0.840	7.290	1052.262	-21.052
0.850	7.300	1052.483	-21.052
0.860	7.273	1052.666	-21.052
0.870	7.253	1052.856	-21.052
0.880	7.258	1053.073	-21.052
0.890	7.284	1053.309	-21.052
0.900	7.278	1053.514	-21.052
0.910	7.218	1053.664	-21.052
0.920	7.169	1053.825	-21.052
0.930	7.130	1053.996	-21.052
0.940	7.136	1054.213	-21.052
0.950	7.123	1054.411	-21.052
0.960	7.128	1054.627	-21.052
0.970	7.143	1054.852	-21.052
0.980	7.113	1055.032	-21.052
0.990	7.187	1055.317	-21.052
1.000	7.251	1055.592	-21.052
1.010	7.251	1055.802	-21.052
1.020	7.291	1056.053	-21.052
1.030	7.337	1056.309	-21.052
1.040	7.380	1056.562	-21.052
1.050	7.417	1056.810	-21.052
1.060	7.476	1057.080	-21.052
1.070	7.509	1057.323	-21.052
1.080	7.466	1057.491	-21.052
1.090	7.444	1057.680	-21.052
1.100	7.482	1057.927	-21.052
1.110	7.538	1058.194	-21.052
1.120	7.562	1058.429	-21.052
1.130	7.614	1058.691	-21.052
1.140	7.708	1058.996	-21.052
1.150	7.763	1059.262	-21.052
1.160	7.794	1059.503	-21.052
1.170	7.825	1059.744	-21.052
1.180	7.935	1060.065	-21.052
1.190	8.029	1060.369	-21.052
1.200	8.033	1060.584	-21.052
1.210	8.019	1060.780	-21.052
1.220	8.010	1060.981	-21.052
1.230	8.094	1061.276	-21.052
1.240	8.134	1061.527	-21.052
1.250	8.145	1061.749	-21.052
1.260	8.146	1061.960	-21.052
1.270	8.121	1062.146	-21.052
1.280	8.136	1062.371	-21.052
1.290	8.092	1062.538	-21.052
1.300	8.046	1062.702	-21.052
1.310	8.040	1062.907	-21.052
1.320	8.078	1063.155	-21.052
1.330	8.130	1063.417	-21.052
1.340	8.166	1063.664	-21.052
1.350	8.144	1063.853	-21.052
1.360	8.088	1064.007	-21.052
1.370	8.001	1064.131	-21.052
1.380	7.943	1064.283	-21.052
1.390	7.919	1064.470	-21.052
1.400	7.898	1064.660	-21.052
1.410	7.842	1064.814	-21.052
1.420	7.783	1064.965	-21.052
1.430	7.803	1065.196	-21.052
1.440	7.841	1065.444	-21.052
1.450	7.876	1065.690	-21.052
1.460	7.835	1065.860	-21.052
1.470	7.838	1066.073	-21.052
1.480	7.840	1066.286	-21.052
1.490	7.814	1066.470	-21.052
1.500	7.774	1066.640	-21.052
1.510	7.731	1066.808	-21.052
1.520	7.730	1067.017	-21.052
1.530	7.727	1067.225	-21.052
1.540	7.691	1067.400	-21.052
1.550	7.582	1067.501	-21.052
1.560	7.511	1067.641	-21.052
1.570	7.511	1067.851	-21.052
1.580	7.457	1068.008	-21.052
1.590	7.390	1068.151	-21.052
1.600	7.445	1068.418	-21.052
1.610	7.505	1068.688	-21.052
1.620	7.499	1068.892	-21.052
1.630	7.475	1069.079	-21.052
1.640	7.378	1069.193	-21.052
1.650	7.285	1069.310	-21.052
1.660	7.191	1069.426	-21.052
1.670	7.036	1069.481	-21.052
1.680	6.929	1069.585	-21.052
1.690	6.893	1069.760	-21.052
1.700	6.819	1069.896	-21.052
1.710	6.660	1069.948	-21.052
1.720	6.546	1070.044	-21.052
1.730	6.463	1070.172	-21.052
1.740	6.358	1070.278	-21.052
1.750	6.250	1070.380	-21.052
1.760	6.119	1070.459	-21.052
1.770	5.951	1070.502	-21.052
1.780	5.798	1070.559	-21.052
1.790	5.712	1070.684	-21.052
1.800	5.620	1070.803	-21.052
1.810	5.557	1070.950	-21.052
1.820	5.444	1071.047	-21.052
1.830	5.276	1071.090	-21.052
1.840	5.247	1071.271	-21.052
1.850	5.206	1071.441	-21.052
1.860	5.096	1071.541	-21.052
1.870	4.984	1071.640	-21.052
1.880	4.825	1071.692	-21.052
1.890	4.687	1071.764	-21.052
1.900	4.586	1071.873	-21.052
1.910	4.506	1072.004	-21.052
1.920	4.382	1072.090	-21.052
1.930	4.245	1072.164	-21.052
1.940	4.139	1072.268	-21.052
1.950	4.015	1072.355	-21.052
1.960	3.894	1072.444	-21.052
1.970	3.709	1072.470	-21.052
1.980	3.531	1072.503	-21.052
1.990	3.446	1072.628	-21.052
2.000	3.391	1072.784	-21.052
2.010	3.281	1072.884	-21.052
2.020	3.148	1072.961	-21.052
2.030	3.040	1073.064	-21.052
2.040	2.920	1073.154	-21.052
2.050	2.779	1073.224	-21.052
2.060	2.680	1073.336	-21.052
2.070	2.623	1073.489	-21.052
2.080	2.494	1073.571	-21.052
2.090	2.372	1073.659	-21.052
2.100	2.365	1073.863	-21.052
2.110	2.340	1074.048	-21.052
2.120	2.258	1074.177	-21.052
2.130	2.189	1074.318	-21.052
2.140	2.079	1074.419	-21.052
2.150	1.882	1074.432	-21.052
2.160	1.749	1074.511	-21.052
2.170	1.792	1074.763	-18.354
2.180	1.842	1075.011	-18.354
2.190	2.007	1075.360	-18.354
2.200	2.592	1076.128	-18.354
2.210	3.685	1077.404	-18.354
2.220	6.311	1080.214	-18.354
2.230	11.668	1085.755	-18.354
2.240	18.414	1092.684	-18.354
2.250	25.254	1099.708	-18.354
2.260	31.777	1106.414	-18.354
2.270	38.305	1113.126	-18.354
2.280	46.260	1121.265	-18.354
2.290	55.209	1130.397	-18.354
2.300	63.347	1138.718	-18.354
2.310	70.471	1146.025	-18.354
2.320	78.318	1154.056	-18.354
2.330	86.923	1162.845	-18.354
2.340	95.083	1171.189	-18.354
2.350	101.927	1178.217	-18.354
2.360	107.803	1184.276	-18.354
2.370	113.138	1189.794	-18.354
2.380	117.867	1194.706	-18.354
2.390	122.451	1199.474	-18.354
2.400	127.290	1204.497	-18.354
2.410	132.457	1209.848	-18.354
2.420	137.588	1215.162	-18.354
2.430	141.984	1219.741	-18.354
2.440	146.154	1224.095	-18.354
2.450	150.997	1229.122	-18.354
2.460	155.835	1234.143	-18.354
2.470	159.590	1238.081	-18.354
2.480	163.175	1241.850	-18.354
2.490	166.881	1245.740	-18.354
2.500	169.887	1248.929	-18.354
2.510	173.457	1252.683	-18.354
2.520	176.664	1256.073	-18.354
2.530	179.671	1259.264	-18.354
2.540	183.229	1263.005	-18.354
2.550	186.183	1266.143	-18.354
2.560	189.165	1269.308	-18.354
2.570	192.177	1272.504	-18.354
2.580	194.547	1275.057	-18.354
2.590	197.068	1277.762	-18.354
2.600	199.949	1280.826	-18.354
2.610	202.956	1284.017	-18.354
2.620	205.680	1286.924	-18.354
2.630	208.405	1289.833	-18.354
2.640	210.927	1292.539	-18.354
2.650	213.341	1295.136	-18.354
2.660	216.244	1298.223	-18.354
2.670	218.408	1300.570	-18.354
2.680	219.803	1302.148	-18.354
2.690	221.311	1303.840	-18.354
2.700	223.379	1306.092	-18.354
2.710	225.906	1308.802	-18.354
2.720	227.903	1310.983	-18.354
2.730	229.691	1312.954	-18.354
2.740	231.412	1314.859	-18.354
2.750	232.782	1316.412	-18.354
2.760	234.971	1318.785	-18.354
2.770	236.828	1320.825	-18.354
2.780	238.759	1322.940	-18.354
2.790	241.520	1325.885	-18.354
2.800	243.197	1327.745	-18.354
2.810	244.222	1328.953	-18.354
2.820	245.676	1330.591	-18.354
2.830	247.442	1332.541	-18.354
2.840	248.895	1334.177	-18.354
2.850	249.657	1335.122	-18.354
2.860	250.754	1336.404	-18.354
2.870	251.910	1337.743	-18.354
2.880	252.527	1338.544	-18.354
2.890	253.545	1339.745	-18.354
2.900	255.162	1341.545	-18.354
2.910	256.800	1343.367	-18.354
2.920	257.732	1344.482	-18.354
2.930	259.006	1345.940	-18.354
2.940	260.736	1347.854	-18.354
2.950	261.671	1348.972	-18.354
2.960	262.456	1349.940	-18.354
2.970	263.343	1351.011	-18.354
2.980	264.307	1352.159	-18.354
2.990	265.544	1353.579	-18.354
3.000	267.157	1355.375	-18.354
3.010	268.758	1357.160	-18.354
3.020	269.684	1358.270	-18.354
3.030	270.031	1358.800	-18.354
3.040	270.082	1359.035	-18.354
3.050	270.731	1359.868	-18.354
3.060	271.583	1360.903	-18.354
3.070	271.938	1361.441	-18.354
3.080	272.091	1361.778	-18.354
3.090	272.624	1362.495	-18.354
3.100	273.696	1363.750	-18.354
3.110	274.504	1364.742	-18.354
3.120	275.085	1365.506	-18.354
3.130	275.669	1366.273	-18.354
3.140	276.276	1367.064	-18.354
3.150	276.482	1367.453	-18.354
3.160	276.690	1367.846	-18.354
3.170	277.348	1368.687	-18.354
3.180	278.024	1369.546	-18.354
3.190	278.035	1369.740	-18.354
3.200	277.456	1369.346	-18.354
3.210	277.639	1369.712	-18.354
3.220	277.488	1369.745	-18.354
3.230	276.422	1368.862	-18.354
3.240	276.206	1368.830	-18.354
3.250	276.867	1369.674	-18.354
3.260	277.299	1370.289	-18.354
3.270	277.100	1370.274	-18.354
3.280	276.672	1370.030	-18.354
3.290	276.432	1369.973	-18.354
3.300	276.795	1370.520	-18.354
3.310	277.093	1371.001	-18.354
3.320	276.484	1370.576	-18.354
3.330	275.571	1369.847	-18.354
3.340	275.397	1369.856	-18.354
3.350	275.580	1370.222	-18.354
3.360	275.942	1370.768	-18.354
3.370	276.282	1371.292	-18.354
3.380	275.964	1371.157	-18.354
3.390	275.623	1371.000	-18.354
3.400	275.792	1371.352	-18.354
3.410	276.038	1371.781	-18.354
3.420	276.304	1372.231	-18.354
3.430	276.528	1372.639	-18.354
3.440	275.963	1372.257	-18.354
3.450	275.370	1371.848	-18.354
3.460	275.098	1371.760	-18.354
3.470	274.808	1371.653	-18.354
3.480	274.552	1371.580	-18.354
3.490	274.342	1371.554	-18.354
3.500	274.163	1371.558	-18.354
3.510	273.963	1371.542	-18.354
3.520	273.857	1371.620	-18.354
3.530	273.747	1371.693	-18.354
3.540	273.594	1371.723	-18.354
3.550	273.764	1372.077	-18.354
3.560	273.951	1372.448	-18.354
3.570	274.149	1372.829	-18.354
3.580	274.320	1373.184	-18.354
3.590	274.320	1373.368	-18.354
3.600	274.317	1373.548	-18.354
3.610	274.238	1373.652	-18.354
3.620	274.195	1373.793	-18.354
3.630	274.068	1373.849	-18.354
3.640	273.793	1373.758	-18.354
3.650	273.279	1373.427	-18.354
3.660	272.702	1373.034	-18.354
3.670	272.461	1372.977	-18.354
3.680	272.322	1373.022	-18.354
3.690	272.014	1372.897	-18.354
3.700	271.748	1372.815	-18.354
3.710	271.646	1372.896	-18.354
3.720	271.470	1372.904	-18.354
3.730	271.424	1373.041	-18.354
3.740	271.484	1373.285	-18.354
3.750	271.268	1373.253	-18.354
3.760	270.814	1372.982	-18.354
3.770	270.598	1372.949	-18.354
3.780	270.534	1373.069	-18.354
3.790	269.747	1372.465	-18.354
3.800	266.889	1369.791	-18.354
3.810	260.708	1363.793	-18.354
3.820	252.367	1355.636	-18.354
3.830	243.658	1347.110	-18.354
3.840	234.428	1338.064	-18.354
3.850	224.679	1328.499	-18.354
3.860	215.133	1319.136	-18.354
3.870	206.108	1310.294	-18.354
3.880	197.590	1301.960	-18.354
3.890	189.414	1293.968	-18.354
3.900	181.475	1286.212	-18.354
3.910	173.750	1278.670	-18.354
3.920	166.134	1271.239	-18.354
3.930	158.321	1263.609	-18.354
3.940	150.660	1256.131	-18.354
3.950	143.392	1249.047	-18.354
3.960	136.305	1242.144	-18.354
3.970	129.433	1235.455	-18.354
3.980	122.771	1228.976	-18.354
3.990	116.236	1222.625	-18.354
4.000	109.820	1216.392	-18.354
4.010	103.601	1210.357	-18.354
4.020	97.541	1204.481	-18.354
4.030	91.533	1198.656	-18.354
4.040	85.658	1192.965	-18.354
4.050	80.007	1187.498	-18.354
4.060	74.508	1182.182	-18.354
4.070	69.197	1177.054	-18.354
4.080	64.119	1172.161	-18.354
4.090	59.138	1167.363	-18.354
4.100	54.472	1162.880	-18.354
4.110	50.036	1158.628	-18.354
4.120	45.782	1154.558	-18.354
4.130	42.062	1151.020	-18.354
4.140	38.931	1148.073	-18.354
4.150	36.495	1145.821	-18.354
4.160	34.571	1144.081	-18.354
4.170	32.838	1142.531	-18.354
4.180	31.159	1141.036	-18.354
4.190	29.528	1139.588	-18.354
4.200	28.023	1138.267	-18.354
4.210	26.595	1137.022	-18.354
4.220	25.237	1135.847	-18.354
4.230	23.858	1134.652	-18.354
4.240	22.504	1133.482	-18.354
4.250	21.236	1132.398	-18.354
4.260	20.033	1131.378	-18.354
4.270	19.009	1130.538	-18.354
4.280	18.098	1129.810	-18.354
4.290	17.273	1129.168	-18.354
4.300	16.592	1128.670	-18.354
4.310	16.048	1128.311	-18.354
4.320	15.596	1128.042	-18.354
4.330	15.166	1127.795	-18.354
4.340	14.825	1127.638	-18.354
4.350	14.559	1127.555	-18.354
4.360	14.228	1127.408	-18.354
4.370	13.894	1127.257	-18.354
4.380	13.645	1127.193	-18.354
4.390	13.492	1127.223	-18.354
4.400	13.250	1127.164	-18.354
4.410	13.049	1127.146	-18.354
4.420	12.985	1127.266	-18.354
4.430	12.841	1127.306	-18.354
4.440	12.600	1127.248	-18.354
4.450	12.394	1127.226	-18.354
4.460	12.283	1127.298	-18.354
4.470	12.209	1127.408	-18.354
4.480	12.145	1127.527	-18.354
4.490	12.054	1127.620	-18.354
4.500	11.937	1127.687	-18.354
4.510	11.813	1127.746	-18.354
4.520	11.696	1127.813	-18.354
4.530	11.627	1127.927	-18.354
4.540	11.625	1128.109	-18.354
4.550	11.518	1128.185	-18.354
4.560	11.337	1128.188	-18.354
4.570	11.222	1128.256	-18.354
4.580	11.117	1128.335	-18.354
4.590	11.017	1128.418	-18.354
4.600	10.895	1128.480	-18.354
4.610	10.735	1128.503	-18.354
4.620	10.533	1128.484	-18.354
4.630	10.337	1128.473	-18.354
4.640	10.231	1128.550	-18.354
4.650	10.155	1128.658	-18.354
4.660	9.987	1128.673	-18.354
4.670	9.823	1128.692	-18.354
4.680	9.673	1128.726	-18.354
4.690	9.433	1128.669	-18.354
4.700	9.238	1128.659	-18.354
4.710	9.114	1128.718	-18.354
4.720	9.028	1128.815	-18.354
4.730	8.992	1128.963	-18.354
4.740	8.929	1129.083	-18.354
4.750	8.842	1129.179	-18.354
4.760	8.760	1129.282	-18.354
4.770	8.671	1129.376	-18.354
4.780	8.596	1129.484	-18.354
4.790	8.490	1129.562	-18.354
4.800	8.422	1129.678	-18.354
4.810	8.440	1129.879	-18.354
4.820	8.501	1130.124	-18.354
4.830	8.610	1130.417	-18.354
4.840	8.695	1130.684	-18.354
4.850	8.819	1130.993	-18.354
4.860	8.910	1131.267	-18.354
4.870	8.911	1131.451	-18.354
4.880	8.883	1131.606	-18.354
4.890	8.888	1131.796	-18.354
4.900	8.967	1132.058	-18.354
4.910	9.072	1132.347	-18.354
4.920	9.102	1132.560	-18.354
4.930	9.074	1132.715	-18.354
4.940	9.073	1132.898	-18.354
4.950	9.052	1133.060	-18.354
4.960	9.046	1133.238	-18.354
4.970	8.908	1133.283	-18.354
4.980	8.694	1133.253	-18.354
4.990	8.684	1133.426	-18.354
5.000	8.707	1133.633	-18.354
5.010	8.692	1133.802	-18.354
5.020	8.773	1134.066	-18.354
5.030	8.843	1134.320	-18.354
5.040	8.866	1134.526	-18.354
5.050	8.878	1134.722	-18.354
5.060	8.865	1134.892	-18.354
5.070	8.876	1135.086	-18.354
5.080	8.868	1135.262	-18.354
5.090	8.886	1135.464	-18.354
5.100	8.984	1135.745	-18.354
5.110	9.023	1135.968	-18.354
5.120	9.013	1136.141	-18.354
5.130	9.014	1136.326	-18.354
5.140	9.041	1136.536	-18.354
5.150	9.102	1136.781	-18.354
5.160	9.145	1137.007	-18.354
5.170	9.134	1137.180	-18.354
5.180	9.102	1137.332	-18.354
5.190	9.069	1137.482	-18.354
5.200	9.072	1137.669	-18.354
5.210	9.082	1137.862	-18.354
5.220	9.131	1138.095	-18.354
5.230	9.190	1138.337	-18.354
5.240	9.152	1138.483	-18.354
5.250	9.159	1138.673	-18.354
5.260	9.203	1138.901	-18.354
5.270	9.215	1139.097	-18.354
5.280	9.156	1139.221	-18.354
5.290	9.103	1139.352	-18.354
5.300	9.124	1139.557	-18.354
5.310	9.227	1139.842	-18.354
5.320	9.341	1140.140	-18.354
5.330	9.365	1140.348	-18.354
5.340	9.347	1140.513	-18.354
5.350	9.311	1140.661	-18.354
5.360	9.236	1140.770	-18.354
5.370	9.207	1140.924	-18.354
5.380	9.326	1141.226	-18.354
5.390	9.451	1141.535	-18.354
5.400	9.510	1141.777	-18.354
5.410	9.530	1141.981	-18.354
5.420	9.511	1142.146	-18.354
5.430	9.458	1142.276	-18.354
5.440	9.375	1142.376	-18.354
5.450	9.363	1142.548	-18.354
5.460	9.382	1142.751	-18.354
5.470	9.431	1142.983	-18.354
5.480	9.530	1143.266	-18.354
5.490	9.532	1143.452	-18.354
5.500	9.510	1143.613	-18.354
5.510	9.520	1143.806	-18.354
5.520	9.540	1144.009	-18.354
5.530	9.558	1144.212	-18.354
5.540	9.498	1144.335	-18.354
5.550	9.427	1144.447	-18.354
5.560	9.438	1144.641	-18.354
5.570	9.396	1144.784	-18.354
5.580	9.350	1144.921	-18.354
5.590	9.394	1145.148	-18.354
5.600	9.442	1145.380	-18.354
5.610	9.386	1145.508	-18.354
5.620	9.257	1145.562	-18.354
5.630	9.166	1145.655	-18.354
5.640	9.090	1145.763	-18.354
5.650	9.024	1145.880	-18.354
5.660	8.959	1145.998	-18.354
5.670	8.981	1146.204	-18.354
5.680	9.025	1146.432	-18.354
5.690	8.971	1146.561	-18.354
5.700	8.886	1146.659	-18.354
5.710	8.806	1146.763	-18.354
5.720	8.713	1146.854	-18.354
5.730	8.589	1146.913	-18.354
5.740	8.526	1147.034	-18.354
5.750	8.448	1147.139	-18.354
5.760	8.410	1147.284	-18.354
5.770	8.461	1147.519	-18.354
5.780	8.418	1147.660	-18.354
5.790	8.344	1147.770	-18.354
5.800	8.258	1147.867	-18.354
5.810	8.148	1147.940	-18.354
5.820	8.085	1148.062	-18.354
5.830	8.052	1148.212	-18.354
5.840	7.977	1148.321	-18.354
5.850	7.871	1148.397	-18.354
5.860	7.747	1148.458	-18.354
5.870	7.653	1148.547	-18.354
5.880	7.639	1148.717	-18.354
5.890	7.530	1148.791	-18.354
5.900	7.329	1148.773	-18.354
5.910	7.145	1148.773	-18.354
5.920	7.021	1148.833	-18.354
5.930	7.040	1149.036	-18.354
5.940	6.934	1149.113	-18.354
5.950	6.773	1149.135	-18.354
5.960	6.768	1149.314	-18.354
5.970	6.695	1149.424	-18.354
5.980	6.515	1149.427	-18.354
5.990	6.351	1149.447	-18.354
6.000	6.255	1149.535	-18.354
6.010	6.142	1149.606	-18.354
6.020	5.997	1149.644	-18.354
6.030	5.855	1149.686	-18.354
6.040	5.729	1149.743	-18.354
6.050	5.714	1149.912	-18.354
6.060	5.699	1150.080	-18.354
6.070	5.592	1150.157	-18.354
6.080	5.563	1150.311	-18.354
6.090	5.533	1150.465	-18.354
6.100	5.516	1150.632	-18.354
6.110	5.536	1150.834	-18.354
6.120	5.510	1150.992	-18.354
6.130	5.512	1151.177	-18.354
6.140	5.537	1151.386	-18.354
6.150	5.648	1151.680	-18.354
6.160	5.760	1151.977	-18.354
6.170	5.763	1152.163	-18.354
6.180	5.724	1152.307	-20.762
6.190	5.679	1152.458	-20.762
6.200	5.843	1152.829	-20.762
6.210	6.419	1153.614	-20.762
6.220	7.441	1154.843	-20.762
6.230	10.054	1157.663	-20.762
6.240	15.650	1163.467	-20.762
6.250	22.734	1170.759	-20.762
6.260	28.795	1177.028	-20.762
6.270	34.288	1182.728	-20.762
6.280	41.135	1189.783	-20.762
6.290	49.729	1198.584	-20.762
6.300	58.771	1207.834	-20.762
6.310	67.508	1216.778	-20.762
6.320	76.117	1225.595	-20.762
6.330	83.966	1233.652	-20.762
6.340	90.795	1240.689	-20.762
6.350	97.678	1247.780	-20.762
6.360	104.567	1254.875	-20.762
6.370	111.498	1262.015	-20.762
6.380	118.496	1269.220	-20.762
6.390	124.795	1275.726	-20.762
6.400	129.918	1281.057	-20.762
6.410	134.373	1285.720	-20.762
6.420	138.743	1290.297	-20.762
6.430	143.211	1294.973	-20.762
6.440	147.630	1299.600	-20.762
6.450	152.056	1304.234	-20.762
6.460	156.002	1308.387	-20.762
6.470	159.117	1311.710	-20.762
6.480	162.840	1315.641	-20.762
