# 'Elapsed time',' I',' II',' RESP',' SCG'
# 'hh:mm:ss.mmm','mV','mV','mV','mV'
'0:00.000',0.16297957,0.18371695,0.52520144,-0.18313714
'0:00.000',0.16268303,0.18371695,0.52520144,-0.18313714
'0:00.000',0.16268303,0.18402153,0.52520144,-0.18313714
'0:00.001',0.16268303,0.18432611,0.52520144,-0.18313714
'0:00.001',0.16268303,0.18463069,0.52520144,-0.18313714
'0:00.001',0.16297957,0.18463069,0.52520144,-0.18313714
'0:00.001',0.16297957,0.18493527,0.52490840,-0.18313714
'0:00.001',0.16297957,0.18525369,0.52490840,-0.18313714
'0:00.002',0.16327611,0.18555827,0.52490840,-0.18313714
'0:00.002',0.16357265,0.18555827,0.52490840,-0.18313714
'0:00.002',0.16389885,0.18586285,0.52490840,-0.18313714
'0:00.002',0.16419539,0.18616743,0.52490840,-0.18313714
'0:00.002',0.16449193,0.18647201,0.52490840,-0.18313714
'0:00.003',0.16481813,0.18647201,0.52490840,-0.18313714
'0:00.003',0.16511467,0.18677659,0.52490840,-0.15268196
'0:00.003',0.16570776,0.18708117,0.52490840,-0.15268196
'0:00.003',0.16633050,0.18738575,0.52459094,-0.12222678
'0:00.003',0.16662704,0.18738575,0.52459094,-0.12222678
'0:00.004',0.16724978,0.18769033,0.52459094,-0.12222678
'0:00.004',0.16816906,0.18799491,0.52459094,-0.12222678
'0:00.004',0.16876214,0.18799491,0.52459094,-0.09136553
'0:00.004',0.16938488,0.18829949,0.52459094,-0.09136553
'0:00.004',0.17030416,0.18860407,0.52459094,-0.09136553
'0:00.005',0.17089725,0.18890865,0.52459094,-0.06091036
'0:00.005',0.17181653,0.18890865,0.52459094,-0.06091036
'0:00.005',0.17273581,0.18921323,0.52429790,-0.06091036
'0:00.005',0.17365509,0.18951781,0.52429790,-0.03045518
'0:00.005',0.17457437,0.18951781,0.52429790,-0.03045518
'0:00.006',0.17549365,0.18982239,0.52429790,0.00000000
'0:00.006',0.17670947,0.19012697,0.52429790,0.00000000
'0:00.006',0.17762875,0.19012697,0.52429790,0.00000000
'0:00.006',0.17854803,0.19043155,0.52429790,0.03045518
'0:00.006',0.17976386,0.19073613,0.52429790,0.03045518
'0:00.007',0.18068314,0.19073613,0.52429790,0.03045518
'0:00.007',0.18189896,0.19104070,0.52398044,0.06091036
'0:00.007',0.18311478,0.19134528,0.52398044,0.06091036
'0:00.007',0.18433061,0.19164986,0.52398044,0.09136553
'0:00.007',0.18524989,0.19164986,0.52398044,0.12222678
'0:00.008',0.18646571,0.19195444,0.52398044,0.12222678
'0:00.008',0.18768153,0.19227287,0.52398044,0.15268196
'0:00.008',0.18892701,0.19227287,0.52398044,0.15268196
'0:00.008',0.19014283,0.19257745,0.52398044,0.15268196
'0:00.008',0.19135865,0.19288203,0.52398044,0.15268196
'0:00.009',0.19287102,0.19288203,0.52368740,0.15268196
'0:00.009',0.19411650,0.19318661,0.52368740,0.15268196
'0:00.009',0.19533232,0.19349119,0.52368740,0.15268196
'0:00.009',0.19684468,0.19379577,0.52368740,0.15268196
'0:00.009',0.19806051,0.19379577,0.52368740,0.15268196
'0:00.010',0.19930598,0.19410035,0.52368740,0.15268196
'0:00.010',0.20081835,0.19440493,0.52368740,0.12222678
'0:00.010',0.20203417,0.19470951,0.52368740,0.12222678
'0:00.010',0.20357619,0.19501409,0.52368740,0.09136553
'0:00.010',0.20479201,0.19531867,0.52336994,0.09136553
'0:00.011',0.20630438,0.19531867,0.52336994,0.06091036
'0:00.011',0.20752020,0.19562325,0.52336994,0.06091036
'0:00.011',0.20906222,0.19592782,0.52336994,0.06091036
'0:00.011',0.21027804,0.19623240,0.52336994,0.03045518
'0:00.011',0.21149387,0.19653698,0.52336994,0.03045518
'0:00.012',0.21303589,0.19653698,0.52336994,0.00000000
'0:00.012',0.21425171,0.19684156,0.52336994,0.00000000
'0:00.012',0.21546753,0.19714614,0.52336994,0.00000000
'0:00.012',0.21668335,0.19745072,0.52307690,0.00000000
'0:00.012',0.21789918,0.19745072,0.52307690,0.00000000
'0:00.013',0.21911500,0.19775530,0.52307690,0.00000000
'0:00.013',0.22036048,0.19805988,0.52307690,0.00000000
'0:00.013',0.22157630,0.19836446,0.52307690,0.00000000
'0:00.013',0.22279212,0.19836446,0.52307690,0.03045518
'0:00.013',0.22400795,0.19866904,0.52307690,0.03045518
'0:00.014',0.22492723,0.19897362,0.52307690,0.03045518
'0:00.014',0.22614305,0.19897362,0.52275944,0.03045518
'0:00.014',0.22706233,0.19929205,0.52275944,0.03045518
'0:00.014',0.22827815,0.19959663,0.52275944,0.03045518
'0:00.014',0.22919743,0.19990121,0.52275944,0.03045518
'0:00.015',0.23011671,0.19990121,0.52275944,0.03045518
'0:00.015',0.23103599,0.20020579,0.52275944,0.03045518
'0:00.015',0.23195528,0.20051037,0.52275944,0.06091036
'0:00.015',0.23287456,0.20051037,0.52275944,0.06091036
'0:00.015',0.23376418,0.20081494,0.52275944,0.09136553
'0:00.016',0.23468346,0.20111952,0.52246640,0.09136553
'0:00.016',0.23560274,0.20142410,0.52246640,0.12222678
'0:00.016',0.23652202,0.20142410,0.52246640,0.12222678
'0:00.016',0.23714476,0.20172868,0.52246640,0.15268196
'0:00.016',0.23803439,0.20203326,0.52246640,0.15268196
'0:00.017',0.23865713,0.20233784,0.52246640,0.18313714
'0:00.017',0.23957641,0.20233784,0.52246640,0.18313714
'0:00.017',0.24019915,0.20264242,0.52246640,0.18313714
'0:00.017',0.24108877,0.20294700,0.52214894,0.18313714
'0:00.017',0.24171151,0.20294700,0.52214894,0.15268196
'0:00.018',0.24233425,0.20325158,0.52214894,0.15268196
'0:00.018',0.24292734,0.20355616,0.52214894,0.12222678
'0:00.018',0.24355007,0.20386074,0.52214894,0.12222678
'0:00.018',0.24414316,0.20386074,0.52214894,0.09136553
'0:00.018',0.24446935,0.20416532,0.52214894,0.09136553
'0:00.019',0.24506244,0.20416532,0.52214894,0.06091036
'0:00.019',0.24568518,0.20446990,0.52185590,0.06091036
'0:00.019',0.24598172,0.20477448,0.52185590,0.06091036
'0:00.019',0.24627826,0.20477448,0.52185590,0.03045518
'0:00.019',0.24690100,0.20507906,0.52185590,0.03045518
'0:00.020',0.24719754,0.20507906,0.52185590,0.00000000
'0:00.020',0.24752374,0.20538364,0.52185590,0.00000000
'0:00.020',0.24782028,0.20538364,0.52185590,0.00000000
'0:00.020',0.24811682,0.20568822,0.52153843,0.00000000
'0:00.020',0.24841337,0.20568822,0.52153843,0.00000000
'0:00.021',0.24841337,0.20599280,0.52153843,0.03045518
'0:00.021',0.24873956,0.20599280,0.52153843,0.03045518
'0:00.021',0.24903610,0.20631122,0.52153843,0.03045518
'0:00.021',0.24933265,0.20631122,0.52153843,0.03045518
'0:00.021',0.24933265,0.20661580,0.52153843,0.03045518
'0:00.022',0.24965884,0.20661580,0.52153843,0.03045518
'0:00.022',0.24965884,0.20661580,0.52124539,0.03045518
'0:00.022',0.24995538,0.20692038,0.52124539,0.03045518
'0:00.022',0.24995538,0.20692038,0.52124539,0.00000000
'0:00.022',0.25025193,0.20722496,0.52124539,-0.03045518
'0:00.023',0.25025193,0.20722496,0.52124539,-0.03045518
'0:00.023',0.25054847,0.20722496,0.52124539,-0.06091036
'0:00.023',0.25054847,0.20722496,0.52124539,-0.06091036
'0:00.023',0.25087467,0.20752954,0.52092793,-0.09136553
'0:00.023',0.25087467,0.20752954,0.52092793,-0.09136553
'0:00.024',0.25117121,0.20752954,0.52092793,-0.09136553
'0:00.024',0.25117121,0.20752954,0.52092793,-0.09136553
'0:00.024',0.25146775,0.20783412,0.52092793,-0.09136553
'0:00.024',0.25146775,0.20783412,0.52092793,-0.09136553
'0:00.024',0.25146775,0.20783412,0.52092793,-0.09136553
'0:00.025',0.25179395,0.20783412,0.52063489,-0.09136553
'0:00.025',0.25179395,0.20783412,0.52063489,-0.09136553
'0:00.025',0.25179395,0.20783412,0.52063489,-0.09136553
'0:00.025',0.25179395,0.20783412,0.52063489,-0.09136553
'0:00.025',0.25179395,0.20783412,0.52063489,-0.09136553
'0:00.026',0.25209049,0.20783412,0.52063489,-0.09136553
'0:00.026',0.25209049,0.20783412,0.52063489,-0.09136553
'0:00.026',0.25209049,0.20783412,0.52031743,-0.09136553
'0:00.026',0.25179395,0.20783412,0.52031743,-0.09136553
'0:00.026',0.25179395,0.20783412,0.52031743,-0.09136553
'0:00.027',0.25179395,0.20783412,0.52031743,-0.09136553
'0:00.027',0.25179395,0.20783412,0.52031743,-0.09136553
'0:00.027',0.25146775,0.20783412,0.52031743,-0.09136553
'0:00.027',0.25146775,0.20783412,0.52031743,-0.09136553
'0:00.027',0.25146775,0.20783412,0.52002439,-0.09136553
'0:00.028',0.25117121,0.20783412,0.52002439,-0.09136553
'0:00.028',0.25087467,0.20783412,0.52002439,-0.09136553
'0:00.028',0.25087467,0.20783412,0.52002439,-0.09136553
'0:00.028',0.25054847,0.20783412,0.52002439,-0.06091036
'0:00.028',0.25025193,0.20783412,0.52002439,-0.06091036
'0:00.029',0.24995538,0.20783412,0.51970693,-0.06091036
'0:00.029',0.24965884,0.20752954,0.51970693,-0.06091036
'0:00.029',0.24933265,0.20752954,0.51970693,-0.03045518
'0:00.029',0.24903610,0.20752954,0.51970693,-0.03045518
'0:00.029',0.24873956,0.20752954,0.51970693,-0.03045518
'0:00.030',0.24811682,0.20752954,0.51970693,-0.03045518
'0:00.030',0.24782028,0.20752954,0.51941389,-0.06091036
'0:00.030',0.24719754,0.20752954,0.51941389,-0.06091036
'0:00.030',0.24690100,0.20752954,0.51941389,-0.09136553
'0:00.030',0.24627826,0.20722496,0.51941389,-0.12222678
'0:00.031',0.24568518,0.20722496,0.51941389,-0.15268196
'0:00.031',0.24506244,0.20722496,0.51941389,-0.15268196
'0:00.031',0.24446935,0.20722496,0.51909643,-0.18313714
'0:00.031',0.24384662,0.20722496,0.51909643,-0.18313714
'0:00.031',0.24322388,0.20692038,0.51909643,-0.21359232
'0:00.032',0.24263079,0.20692038,0.51909643,-0.21359232
'0:00.032',0.24200805,0.20692038,0.51909643,-0.21359232
'0:00.032',0.24108877,0.20692038,0.51909643,-0.21359232
'0:00.032',0.24049569,0.20661580,0.51880339,-0.21359232
'0:00.032',0.23957641,0.20661580,0.51880339,-0.21359232
'0:00.033',0.23865713,0.20661580,0.51880339,-0.18313714
'0:00.033',0.23773785,0.20631122,0.51880339,-0.18313714
'0:00.033',0.23681857,0.20631122,0.51880339,-0.18313714
'0:00.033',0.23589929,0.20599280,0.51848593,-0.18313714
'0:00.033',0.23500966,0.20599280,0.51848593,-0.15268196
'0:00.034',0.23409038,0.20568822,0.51848593,-0.15268196
'0:00.034',0.23287456,0.20568822,0.51848593,-0.15268196
'0:00.034',0.23195528,0.20538364,0.51848593,-0.12222678
'0:00.034',0.23070980,0.20538364,0.51848593,-0.12222678
'0:00.034',0.22949398,0.20507906,0.51819289,-0.12222678
'0:00.035',0.22857469,0.20477448,0.51819289,-0.12222678
'0:00.035',0.22735887,0.20477448,0.51819289,-0.12222678
'0:00.035',0.22614305,0.20446990,0.51819289,-0.15268196
'0:00.035',0.22492723,0.20416532,0.51819289,-0.15268196
'0:00.035',0.22371140,0.20386074,0.51787543,-0.18313714
'0:00.036',0.22249558,0.20355616,0.51787543,-0.21359232
'0:00.036',0.22125010,0.20355616,0.51787543,-0.21359232
'0:00.036',0.22003428,0.20325158,0.51787543,-0.24404749
'0:00.036',0.21852192,0.20294700,0.51787543,-0.27450267
'0:00.036',0.21730609,0.20264242,0.51758239,-0.30536392
'0:00.037',0.21609027,0.20233784,0.51758239,-0.33581910
'0:00.037',0.21454825,0.20203326,0.51758239,-0.33581910
'0:00.037',0.21333243,0.20172868,0.51758239,-0.36627428
'0:00.037',0.21211661,0.20142410,0.51726493,-0.36627428
'0:00.037',0.21057459,0.20111952,0.51726493,-0.36627428
'0:00.038',0.20906222,0.20051037,0.51726493,-0.36627428
'0:00.038',0.20784640,0.20020579,0.51726493,-0.36627428
'0:00.038',0.20630438,0.19990121,0.51726493,-0.36627428
'0:00.038',0.20479201,0.19959663,0.51697189,-0.36627428
'0:00.038',0.20357619,0.19897362,0.51697189,-0.36627428
'0:00.039',0.20203417,0.19866904,0.51697189,-0.33581910
'0:00.039',0.20052181,0.19805988,0.51697189,-0.33581910
'0:00.039',0.19897979,0.19775530,0.51697189,-0.33581910
'0:00.039',0.19746742,0.19714614,0.51665443,-0.30536392
'0:00.039',0.19592540,0.19684156,0.51665443,-0.30536392
'0:00.040',0.19411650,0.19623240,0.51665443,-0.27450267
'0:00.040',0.19257448,0.19562325,0.51665443,-0.27450267
'0:00.040',0.19106211,0.19531867,0.51636139,-0.24404749
'0:00.040',0.18922355,0.19470951,0.51636139,-0.24404749
'0:00.040',0.18768153,0.19410035,0.51636139,-0.24404749
'0:00.041',0.18587262,0.19349119,0.51636139,-0.24404749
'0:00.041',0.18403406,0.19257745,0.51604393,-0.24404749
'0:00.041',0.18219550,0.19195444,0.51604393,-0.24404749
'0:00.041',0.18035694,0.19134528,0.51604393,-0.24404749
'0:00.041',0.17854803,0.19043155,0.51604393,-0.24404749
'0:00.042',0.17670947,0.18982239,0.51604393,-0.24404749
'0:00.042',0.17487091,0.18890865,0.51575089,-0.27450267
'0:00.042',0.17303235,0.18799491,0.51575089,-0.27450267
'0:00.042',0.17122344,0.18738575,0.51575089,-0.27450267
'0:00.042',0.16908834,0.18647201,0.51575089,-0.27450267
'0:00.043',0.16724978,0.18555827,0.51543343,-0.27450267
'0:00.043',0.16511467,0.18432611,0.51543343,-0.27450267
'0:00.043',0.16327611,0.18341237,0.51543343,-0.27450267
'0:00.043',0.16114101,0.18249863,0.51543343,-0.27450267
'0:00.043',0.15900590,0.18128031,0.51514039,-0.27450267
'0:00.044',0.15716734,0.18036657,0.51514039,-0.27450267
'0:00.044',0.15503224,0.17914825,0.51514039,-0.27450267
'0:00.044',0.15289714,0.17792993,0.51514039,-0.27450267
'0:00.044',0.15108823,0.17669777,0.51482293,-0.27450267
'0:00.044',0.14892347,0.17547945,0.51482293,-0.27450267
'0:00.045',0.14678837,0.17426113,0.51482293,-0.27450267
'0:00.045',0.14465326,0.17304281,0.51452989,-0.27450267
'0:00.045',0.14251816,0.17182449,0.51452989,-0.27450267
'0:00.045',0.14038306,0.17028775,0.51452989,-0.27450267
'0:00.045',0.13857415,0.16906943,0.51452989,-0.27450267
'0:00.046',0.13643905,0.16754653,0.51421243,-0.27450267
'0:00.046',0.13427429,0.16632821,0.51421243,-0.27450267
'0:00.046',0.13213919,0.16480532,0.51421243,-0.27450267
'0:00.046',0.13000408,0.16326857,0.51421243,-0.27450267
'0:00.046',0.12786898,0.16174567,0.51391939,-0.30536392
'0:00.047',0.12606007,0.16022278,0.51391939,-0.30536392
'0:00.047',0.12392497,0.15869988,0.51391939,-0.33581910
'0:00.047',0.12178986,0.15717698,0.51360193,-0.33581910
'0:00.047',0.11965476,0.15564024,0.51360193,-0.36627428
'0:00.047',0.11749000,0.15411734,0.51360193,-0.36627428
'0:00.048',0.11568110,0.15259444,0.51360193,-0.36627428
'0:00.048',0.11354599,0.15076696,0.51330889,-0.39672945
'0:00.048',0.11141089,0.14923022,0.51330889,-0.39672945
'0:00.048',0.10957233,0.14770732,0.51330889,-0.42718463
'0:00.048',0.10743722,0.14587984,0.51299143,-0.42718463
'0:00.049',0.10530212,0.14435694,0.51299143,-0.42718463
'0:00.049',0.10346356,0.14283404,0.51299143,-0.45763981
'0:00.049',0.10132846,0.14099272,0.51299143,-0.45763981
'0:00.049',0.09948989,0.13946982,0.51269839,-0.48809499
'0:00.049',0.09768099,0.13794692,0.51269839,-0.48809499
'0:00.050',0.09554588,0.13611944,0.51269839,-0.48809499
'0:00.050',0.09370732,0.13458270,0.51238093,-0.51895624
'0:00.050',0.09186876,0.13305980,0.51238093,-0.51895624
'0:00.050',0.09003020,0.13123232,0.51238093,-0.54941142
'0:00.050',0.08789510,0.12970943,0.51208789,-0.54941142
'0:00.051',0.08605653,0.12817268,0.51208789,-0.57986659
'0:00.051',0.08424763,0.12634520,0.51208789,-0.57986659
'0:00.051',0.08240907,0.12482231,0.51208789,-0.61032177
'0:00.051',0.08057050,0.12329941,0.51177043,-0.61032177
'0:00.051',0.07905814,0.12177651,0.51177043,-0.61032177
'0:00.052',0.07721958,0.12023977,0.51177043,-0.64077695
'0:00.052',0.07538102,0.11871687,0.51147739,-0.64077695
'0:00.052',0.07357211,0.11719397,0.51147739,-0.64077695
'0:00.052',0.07173355,0.11567107,0.51147739,-0.61032177
'0:00.052',0.07019153,0.11414817,0.51115992,-0.61032177
'0:00.053',0.06838262,0.11261143,0.51115992,-0.57986659
'0:00.053',0.06684060,0.11108853,0.51115992,-0.54941142
'0:00.053',0.06500204,0.10987021,0.51086688,-0.54941142
'0:00.053',0.06319313,0.10834731,0.51086688,-0.51895624
'0:00.053',0.06165111,0.10681057,0.51086688,-0.48809499
'0:00.054',0.05981255,0.10528767,0.51054942,-0.45763981
'0:00.054',0.05830019,0.10406935,0.51054942,-0.45763981
'0:00.054',0.05646163,0.10254645,0.51054942,-0.42718463
'0:00.054',0.05494926,0.10102355,0.51025638,-0.42718463
'0:00.054',0.05340724,0.09979139,0.51025638,-0.42718463
'0:00.055',0.05159834,0.09826849,0.51025638,-0.39672945
'0:00.055',0.05005632,0.09705017,0.50993892,-0.39672945
'0:00.055',0.04854395,0.09552727,0.50993892,-0.39672945
'0:00.055',0.04670539,0.09430896,0.50993892,-0.39672945
'0:00.055',0.04516337,0.09277221,0.50964588,-0.42718463
'0:00.056',0.04365101,0.09155389,0.50964588,-0.42718463
'0:00.056',0.04213864,0.09033557,0.50964588,-0.42718463
'0:00.056',0.04059662,0.08881268,0.50932842,-0.45763981
'0:00.056',0.03908426,0.08759436,0.50932842,-0.48809499
'0:00.056',0.03754224,0.08637604,0.50932842,-0.48809499
'0:00.057',0.03602987,0.08514388,0.50903538,-0.51895624
'0:00.057',0.03448785,0.08392556,0.50903538,-0.54941142
'0:00.057',0.03297549,0.08270724,0.50903538,-0.57986659
'0:00.057',0.03175967,0.08148892,0.50871792,-0.61032177
'0:00.057',0.03021765,0.08027060,0.50871792,-0.64077695
'0:00.058',0.02870528,0.07935686,0.50871792,-0.64077695
'0:00.058',0.02748946,0.07812470,0.50842488,-0.67123213
'0:00.058',0.02594744,0.07721096,0.50842488,-0.67123213
'0:00.058',0.02473162,0.07599264,0.50842488,-0.67123213
'0:00.058',0.02351579,0.07507890,0.50810742,-0.67123213
'0:00.059',0.02229997,0.07416516,0.50810742,-0.67123213
'0:00.059',0.02105449,0.07325142,0.50781438,-0.67123213
'0:00.059',0.01983867,0.07233768,0.50781438,-0.64077695
'0:00.059',0.01862285,0.07141010,0.50781438,-0.64077695
'0:00.059',0.01740702,0.07049636,0.50749692,-0.64077695
'0:00.060',0.01619120,0.06958262,0.50749692,-0.61032177
'0:00.060',0.01527192,0.06866888,0.50749692,-0.61032177
'0:00.060',0.01405610,0.06805972,0.50720388,-0.61032177
'0:00.060',0.01313682,0.06714598,0.50720388,-0.57986659
'0:00.060',0.01221754,0.06623224,0.50720388,-0.57986659
'0:00.061',0.01100171,0.06562308,0.50688642,-0.57986659
'0:00.061',0.01008243,0.06501392,0.50688642,-0.57986659
'0:00.061',0.00916315,0.06408634,0.50688642,-0.57986659
'0:00.061',0.00824387,0.06347718,0.50659338,-0.57986659
'0:00.061',0.00732459,0.06256344,0.50659338,-0.57986659
'0:00.062',0.00643496,0.06195428,0.50627592,-0.57986659
'0:00.062',0.00581223,0.06134512,0.50627592,-0.54941142
'0:00.062',0.00489295,0.06073596,0.50627592,-0.54941142
'0:00.062',0.00427021,0.05982223,0.50598288,-0.51895624
'0:00.062',0.00338058,0.05921307,0.50598288,-0.51895624
'0:00.063',0.00275784,0.05860391,0.50598288,-0.51895624
'0:00.063',0.00183856,0.05799475,0.50566542,-0.48809499
'0:00.063',0.00124548,0.05706716,0.50566542,-0.48809499
'0:00.063',0.00062274,0.05645800,0.50537238,-0.48809499
'0:00.063',0.00000000,0.05584884,0.50537238,-0.48809499
'0:00.064',-0.00059308,0.05493511,0.50537238,-0.45763981
'0:00.064',-0.00121582,0.05432595,0.50505492,-0.45763981
'0:00.064',-0.00180891,0.05371679,0.50505492,-0.45763981
'0:00.064',-0.00213510,0.05310763,0.50476188,-0.42718463
'0:00.064',-0.00272819,0.05219389,0.50476188,-0.42718463
'0:00.065',-0.00335093,0.05158473,0.50476188,-0.39672945
'0:00.065',-0.00394401,0.05067099,0.50444442,-0.39672945
'0:00.065',-0.00456675,0.05004799,0.50444442,-0.39672945
'0:00.065',-0.00486329,0.04913425,0.50444442,-0.39672945
'0:00.065',-0.00548603,0.04852509,0.50415138,-0.36627428
'0:00.066',-0.00607911,0.04761135,0.50415138,-0.36627428
'0:00.066',-0.00670185,0.04700219,0.50383392,-0.36627428
'0:00.066',-0.00732459,0.04608845,0.50383392,-0.36627428
'0:00.066',-0.00791768,0.04517471,0.50383392,-0.36627428
'0:00.066',-0.00883696,0.04456555,0.50354088,-0.36627428
'0:00.067',-0.00945969,0.04365181,0.50354088,-0.36627428
'0:00.067',-0.01005278,0.04272423,0.50322342,-0.36627428
'0:00.067',-0.01097206,0.04181049,0.50322342,-0.39672945
'0:00.067',-0.01159480,0.04120133,0.50322342,-0.39672945
'0:00.067',-0.01218788,0.04028759,0.50293038,-0.39672945
'0:00.068',-0.01310716,0.03937385,0.50293038,-0.39672945
'0:00.068',-0.01402644,0.03846011,0.50261292,-0.39672945
'0:00.068',-0.01464918,0.03754637,0.50261292,-0.42718463
'0:00.068',-0.01553881,0.03663263,0.50261292,-0.39672945
'0:00.068',-0.01645809,0.03570505,0.50231988,-0.39672945
'0:00.069',-0.01708083,0.03479131,0.50231988,-0.39672945
'0:00.069',-0.01800011,0.03387757,0.50200242,-0.36627428
'0:00.069',-0.01891939,0.03296383,0.50200242,-0.36627428
'0:00.069',-0.01983867,0.03205009,0.50200242,-0.33581910
'0:00.069',-0.02072830,0.03113635,0.50170938,-0.30536392
'0:00.070',-0.02164758,0.03022261,0.50170938,-0.27450267
'0:00.070',-0.02256686,0.02930888,0.50139192,-0.24404749
'0:00.070',-0.02348614,0.02838129,0.50139192,-0.21359232
'0:00.070',-0.02440542,0.02777213,0.50139192,-0.18313714
'0:00.070',-0.02532470,0.02685839,0.50109888,-0.15268196
'0:00.071',-0.02624398,0.02594465,0.50109888,-0.12222678
'0:00.071',-0.02716326,0.02503091,0.50078142,-0.09136553
'0:00.071',-0.02805289,0.02411718,0.50078142,-0.09136553
'0:00.071',-0.02929837,0.02320344,0.50078142,-0.06091036
'0:00.071',-0.03018799,0.02228970,0.50048837,-0.03045518
'0:00.072',-0.03143347,0.02136211,0.50048837,-0.03045518
'0:00.072',-0.03232310,0.02075295,0.50017091,-0.03045518
'0:00.072',-0.03356857,0.01983922,0.50017091,0.00000000
'0:00.072',-0.03478440,0.01892548,0.49987787,0.00000000
'0:00.072',-0.03570368,0.01801174,0.49987787,-0.03045518
'0:00.073',-0.03691950,0.01709800,0.49987787,-0.03045518
'0:00.073',-0.03813532,0.01618426,0.49956041,-0.03045518
'0:00.073',-0.03935114,0.01527052,0.49956041,-0.06091036
'0:00.073',-0.04056697,0.01434294,0.49926737,-0.06091036
'0:00.073',-0.04181244,0.01342920,0.49926737,-0.09136553
'0:00.074',-0.04302827,0.01251546,0.49926737,-0.09136553
'0:00.074',-0.04424409,0.01190630,0.49894991,-0.09136553
'0:00.074',-0.04545991,0.01099256,0.49894991,-0.09136553
'0:00.074',-0.04667574,0.01007882,0.49865687,-0.09136553
'0:00.074',-0.04789156,0.00916508,0.49865687,-0.09136553
'0:00.075',-0.04910738,0.00825134,0.49833941,-0.09136553
'0:00.075',-0.05035286,0.00732376,0.49833941,-0.09136553
'0:00.075',-0.05156868,0.00671460,0.49833941,-0.06091036
'0:00.075',-0.05278450,0.00580086,0.49804637,-0.06091036
'0:00.075',-0.05400033,0.00488712,0.49804637,-0.03045518
'0:00.076',-0.05521615,0.00397338,0.49772891,0.00000000
'0:00.076',-0.05643197,0.00305964,0.49772891,0.03045518
'0:00.076',-0.05767745,0.00245048,0.49743587,0.06091036
'0:00.076',-0.05859673,0.00153674,0.49743587,0.09136553
'0:00.076',-0.05981255,0.00060916,0.49743587,0.09136553
'0:00.077',-0.06102838,0.00000000,0.49711841,0.12222678
'0:00.077',-0.06224420,-0.00091374,0.49711841,0.15268196
'0:00.077',-0.06316348,-0.00152290,0.49682537,0.18313714
'0:00.077',-0.06437930,-0.00243664,0.49682537,0.18313714
'0:00.077',-0.06559513,-0.00304580,0.49650791,0.21359232
'0:00.078',-0.06651441,-0.00395954,0.49650791,0.24404749
'0:00.078',-0.06773023,-0.00456870,0.49650791,0.27450267
'0:00.078',-0.06864951,-0.00517786,0.49621487,0.27450267
'0:00.078',-0.06986533,-0.00578701,0.49621487,0.30536392
'0:00.078',-0.07078461,-0.00671460,0.49589741,0.33581910
'0:00.079',-0.07200044,-0.00732376,0.49589741,0.36627428
'0:00.079',-0.07291972,-0.00793292,0.49560437,0.36627428
'0:00.079',-0.07413554,-0.00854208,0.49560437,0.39672945
'0:00.079',-0.07505482,-0.00915124,0.49560437,0.39672945
'0:00.079',-0.07627064,-0.00976040,0.49528691,0.42718463
'0:00.080',-0.07718992,-0.01036955,0.49528691,0.45763981
'0:00.080',-0.07840575,-0.01067413,0.49499387,0.48809499
'0:00.080',-0.07932503,-0.01128329,0.49499387,0.48809499
'0:00.080',-0.08054085,-0.01189245,0.49467641,0.51895624
'0:00.080',-0.08178633,-0.01250161,0.49467641,0.51895624
'0:00.081',-0.08270561,-0.01280619,0.49467641,0.51895624
'0:00.081',-0.08392143,-0.01341535,0.49438337,0.51895624
'0:00.081',-0.08484071,-0.01403836,0.49438337,0.51895624
'0:00.081',-0.08605653,-0.01434294,0.49409033,0.51895624
'0:00.081',-0.08727236,-0.01495210,0.49409033,0.51895624
'0:00.082',-0.08819164,-0.01525667,0.49377287,0.51895624
'0:00.082',-0.08940746,-0.01586583,0.49377287,0.51895624
'0:00.082',-0.09032674,-0.01617041,0.49347983,0.54941142
'0:00.082',-0.09154256,-0.01647499,0.49347983,0.54941142
'0:00.082',-0.09246184,-0.01708415,0.49347983,0.57986659
'0:00.083',-0.09338113,-0.01738873,0.49316237,0.57986659
'0:00.083',-0.09430041,-0.01769331,0.49316237,0.57986659
'0:00.083',-0.09551623,-0.01830247,0.49286933,0.61032177
'0:00.083',-0.09643551,-0.01860705,0.49286933,0.61032177
'0:00.083',-0.09732514,-0.01891163,0.49255187,0.61032177
'0:00.084',-0.09824442,-0.01921621,0.49255187,0.64077695
'0:00.084',-0.09886716,-0.01952079,0.49255187,0.64077695
'0:00.084',-0.09978644,-0.02012995,0.49225883,0.64077695
'0:00.084',-0.10070572,-0.02043453,0.49225883,0.67123213
'0:00.084',-0.10129880,-0.02075295,0.49194137,0.67123213
'0:00.085',-0.10192154,-0.02105753,0.49194137,0.67123213
'0:00.085',-0.10284082,-0.02136211,0.49164833,0.70209338
'0:00.085',-0.10343390,-0.02166669,0.49164833,0.70209338
'0:00.085',-0.10405664,-0.02197127,0.49133087,0.73254855
'0:00.085',-0.10464973,-0.02227585,0.49133087,0.73254855
'0:00.086',-0.10527247,-0.02258043,0.49103783,0.76300373
'0:00.086',-0.10556901,-0.02318959,0.49103783,0.76300373
'0:00.086',-0.10619175,-0.02349417,0.49103783,0.79345891
'0:00.086',-0.10648829,-0.02379875,0.49072037,0.79345891
'0:00.086',-0.10711103,-0.02410333,0.49072037,0.82391409
'0:00.087',-0.10740757,-0.02440791,0.49042733,0.82391409
'0:00.087',-0.10770411,-0.02471249,0.49042733,0.85436927
'0:00.087',-0.10803031,-0.02501707,0.49010986,0.85436927
'0:00.087',-0.10832685,-0.02532165,0.49010986,0.88482444
'0:00.087',-0.10862339,-0.02562623,0.48981682,0.88482444
'0:00.088',-0.10894959,-0.02593081,0.48981682,0.91568569
'0:00.088',-0.10924613,-0.02623539,0.48981682,0.91568569
'0:00.088',-0.10924613,-0.02653997,0.48949936,0.94614087
'0:00.088',-0.10954267,-0.02684455,0.48949936,0.94614087
'0:00.088',-0.10954267,-0.02714913,0.48920632,0.97659605
'0:00.089',-0.10983922,-0.02745371,0.48920632,0.97659605
'0:00.089',-0.10983922,-0.02777213,0.48888886,1.00705123
'0:00.089',-0.10983922,-0.02807671,0.48888886,1.03750640
'0:00.089',-0.10983922,-0.02838129,0.48859582,1.06796158
'0:00.089',-0.10983922,-0.02868587,0.48859582,1.09882283
'0:00.090',-0.10983922,-0.02899045,0.48827836,1.12927801
'0:00.090',-0.10983922,-0.02929503,0.48827836,1.15973319
'0:00.090',-0.10983922,-0.02959961,0.48798532,1.15973319
'0:00.090',-0.10983922,-0.02990419,0.48798532,1.19018836
'0:00.090',-0.10954267,-0.03020877,0.48798532,1.22064354
'0:00.091',-0.10954267,-0.03051335,0.48766786,1.22064354
'0:00.091',-0.10924613,-0.03051335,0.48766786,1.25109872
'0:00.091',-0.10924613,-0.03081793,0.48737482,1.25109872
'0:00.091',-0.10894959,-0.03112251,0.48737482,1.28155390
'0:00.091',-0.10894959,-0.03142709,0.48705736,1.31241515
'0:00.092',-0.10862339,-0.03173167,0.48705736,1.31241515
'0:00.092',-0.10862339,-0.03203625,0.48676432,1.34287033
'0:00.092',-0.10832685,-0.03234083,0.48676432,1.37332550
'0:00.092',-0.10832685,-0.03264541,0.48644686,1.37332550
'0:00.092',-0.10803031,-0.03264541,0.48644686,1.40378068
'0:00.093',-0.10770411,-0.03294999,0.48615382,1.43423586
'0:00.093',-0.10770411,-0.03325457,0.48615382,1.43423586
'0:00.093',-0.10740757,-0.03355915,0.48583636,1.46469104
'0:00.093',-0.10740757,-0.03386373,0.48583636,1.49555229
'0:00.093',-0.10711103,-0.03416831,0.48554332,1.52600746
'0:00.094',-0.10681449,-0.03447289,0.48554332,1.55646264
'0:00.094',-0.10681449,-0.03479131,0.48522586,1.55646264
'0:00.094',-0.10648829,-0.03509589,0.48522586,1.58691782
'0:00.094',-0.10648829,-0.03509589,0.48522586,1.58691782
'0:00.094',-0.10619175,-0.03540047,0.48493282,1.61737300
'0:00.095',-0.10589520,-0.03570505,0.48493282,1.61737300
'0:00.095',-0.10589520,-0.03600963,0.48461536,1.61737300
'0:00.095',-0.10556901,-0.03631421,0.48461536,1.61737300
'0:00.095',-0.10527247,-0.03661879,0.48432232,1.61737300
'0:00.095',-0.10527247,-0.03692337,0.48432232,1.61737300
'0:00.096',-0.10497592,-0.03722795,0.48400486,1.61737300
'0:00.096',-0.10464973,-0.03722795,0.48400486,1.58691782
'0:00.096',-0.10435319,-0.03753253,0.48371182,1.58691782
'0:00.096',-0.10435319,-0.03783711,0.48371182,1.58691782
'0:00.096',-0.10405664,-0.03814169,0.48339436,1.55646264
'0:00.097',-0.10376010,-0.03814169,0.48339436,1.55646264
'0:00.097',-0.10343390,-0.03844627,0.48310132,1.52600746
'0:00.097',-0.10313736,-0.03875085,0.48310132,1.52600746
'0:00.097',-0.10284082,-0.03875085,0.48278386,1.52600746
'0:00.097',-0.10251462,-0.03905543,0.48278386,1.49555229
'0:00.098',-0.10221808,-0.03905543,0.48249082,1.49555229
'0:00.098',-0.10192154,-0.03936001,0.48249082,1.46469104
'0:00.098',-0.10162500,-0.03936001,0.48217336,1.46469104
'0:00.098',-0.10129880,-0.03966459,0.48217336,1.46469104
'0:00.098',-0.10100226,-0.03966459,0.48188032,1.43423586
'0:00.099',-0.10070572,-0.03996917,0.48188032,1.43423586
'0:00.099',-0.10037952,-0.03996917,0.48156286,1.40378068
'0:00.099',-0.10008298,-0.04027375,0.48156286,1.40378068
'0:00.099',-0.09978644,-0.04027375,0.48126982,1.40378068
'0:00.099',-0.09948989,-0.04027375,0.48126982,1.40378068
'0:00.100',-0.09916370,-0.04057832,0.48095236,1.40378068
'0:00.100',-0.09886716,-0.04057832,0.48095236,1.40378068
'0:00.100',-0.09857061,-0.04088290,0.48065932,1.40378068
'0:00.100',-0.09824442,-0.04088290,0.48065932,1.40378068
'0:00.100',-0.09794787,-0.04088290,0.48034186,1.40378068
'0:00.101',-0.09794787,-0.04118748,0.48034186,1.40378068
'0:00.101',-0.09765133,-0.04118748,0.48004882,1.40378068
'0:00.101',-0.09732514,-0.04149206,0.48004882,1.40378068
'0:00.101',-0.09702859,-0.04149206,0.47973136,1.43423586
'0:00.101',-0.09673205,-0.04149206,0.47943831,1.43423586
'0:00.102',-0.09673205,-0.04179664,0.47943831,1.43423586
'0:00.102',-0.09643551,-0.04179664,0.47912085,1.43423586
'0:00.102',-0.09610931,-0.04211507,0.47912085,1.43423586
'0:00.102',-0.09581277,-0.04211507,0.47882781,1.43423586
'0:00.102',-0.09581277,-0.04211507,0.47882781,1.46469104
'0:00.103',-0.09551623,-0.04241965,0.47851035,1.46469104
'0:00.103',-0.09519003,-0.04241965,0.47851035,1.46469104
'0:00.103',-0.09489349,-0.04272423,0.47821731,1.49555229
'0:00.103',-0.09489349,-0.04272423,0.47821731,1.49555229
'0:00.103',-0.09459695,-0.04272423,0.47789985,1.49555229
'0:00.104',-0.09430041,-0.04302881,0.47789985,1.52600746
'0:00.104',-0.09397421,-0.04302881,0.47760681,1.52600746
'0:00.104',-0.09367767,-0.04302881,0.47760681,1.52600746
'0:00.104',-0.09338113,-0.04333339,0.47728935,1.52600746
'0:00.104',-0.09305493,-0.04333339,0.47728935,1.55646264
'0:00.105',-0.09275839,-0.04333339,0.47699631,1.55646264
'0:00.105',-0.09246184,-0.04363797,0.47667885,1.55646264
'0:00.105',-0.09216530,-0.04363797,0.47667885,1.55646264
'0:00.105',-0.09216530,-0.04363797,0.47638581,1.55646264
'0:00.105',-0.09183911,-0.04363797,0.47638581,1.55646264
'0:00.106',-0.09154256,-0.04394255,0.47606835,1.55646264
'0:00.106',-0.09124602,-0.04394255,0.47606835,1.52600746
'0:00.106',-0.09091983,-0.04394255,0.47577531,1.52600746
'0:00.106',-0.09062328,-0.04394255,0.47577531,1.52600746
'0:00.106',-0.09032674,-0.04424713,0.47545785,1.52600746
'0:00.107',-0.09003020,-0.04424713,0.47545785,1.49555229
'0:00.107',-0.09003020,-0.04424713,0.47516481,1.49555229
'0:00.107',-0.08970400,-0.04424713,0.47484735,1.46469104
'0:00.107',-0.08940746,-0.04455171,0.47484735,1.46469104
'0:00.107',-0.08940746,-0.04455171,0.47455431,1.43423586
'0:00.108',-0.08911092,-0.04455171,0.47455431,1.40378068
'0:00.108',-0.08878472,-0.04455171,0.47423685,1.37332550
'0:00.108',-0.08878472,-0.04485629,0.47423685,1.34287033
'0:00.108',-0.08878472,-0.04485629,0.47394381,1.34287033
'0:00.108',-0.08848818,-0.04485629,0.47362635,1.31241515
'0:00.109',-0.08848818,-0.04485629,0.47362635,1.28155390
'0:00.109',-0.08848818,-0.04485629,0.47333331,1.25109872
'0:00.109',-0.08819164,-0.04516087,0.47333331,1.25109872
'0:00.109',-0.08819164,-0.04516087,0.47301585,1.22064354
'0:00.109',-0.08819164,-0.04516087,0.47301585,1.19018836
'0:00.110',-0.08819164,-0.04516087,0.47272281,1.15973319
'0:00.110',-0.08819164,-0.04516087,0.47272281,1.12927801
'0:00.110',-0.08819164,-0.04516087,0.47240535,1.12927801
'0:00.110',-0.08819164,-0.04546544,0.47211231,1.09882283
'0:00.110',-0.08819164,-0.04546544,0.47211231,1.09882283
'0:00.111',-0.08819164,-0.04546544,0.47179485,1.09882283
'0:00.111',-0.08819164,-0.04546544,0.47179485,1.09882283
'0:00.111',-0.08819164,-0.04546544,0.47150181,1.09882283
'0:00.111',-0.08848818,-0.04546544,0.47150181,1.09882283
'0:00.111',-0.08848818,-0.04546544,0.47118435,1.09882283
'0:00.112',-0.08848818,-0.04546544,0.47089131,1.09882283
'0:00.112',-0.08848818,-0.04546544,0.47089131,1.09882283
'0:00.112',-0.08848818,-0.04546544,0.47057385,1.09882283
'0:00.112',-0.08878472,-0.04546544,0.47057385,1.06796158
'0:00.112',-0.08878472,-0.04546544,0.47028081,1.06796158
'0:00.113',-0.08878472,-0.04546544,0.46996335,1.09882283
'0:00.113',-0.08911092,-0.04546544,0.46996335,1.09882283
'0:00.113',-0.08911092,-0.04577002,0.46967031,1.09882283
'0:00.113',-0.08911092,-0.04577002,0.46967031,1.09882283
'0:00.113',-0.08940746,-0.04577002,0.46935285,1.09882283
'0:00.114',-0.08940746,-0.04577002,0.46905981,1.09882283
'0:00.114',-0.08940746,-0.04577002,0.46905981,1.09882283
'0:00.114',-0.08970400,-0.04577002,0.46874234,1.12927801
'0:00.114',-0.08970400,-0.04577002,0.46874234,1.12927801
'0:00.114',-0.08970400,-0.04577002,0.46844930,1.12927801
'0:00.115',-0.08970400,-0.04577002,0.46844930,1.15973319
'0:00.115',-0.08970400,-0.04577002,0.46813184,1.15973319
'0:00.115',-0.08970400,-0.04577002,0.46783880,1.19018836
'0:00.115',-0.08970400,-0.04577002,0.46783880,1.19018836
'0:00.115',-0.08970400,-0.04577002,0.46752134,1.22064354
'0:00.116',-0.08970400,-0.04577002,0.46752134,1.22064354
'0:00.116',-0.08970400,-0.04577002,0.46722830,1.25109872
'0:00.116',-0.08940746,-0.04577002,0.46691084,1.25109872
'0:00.116',-0.08940746,-0.04577002,0.46691084,1.28155390
'0:00.116',-0.08940746,-0.04577002,0.46661780,1.31241515
'0:00.117',-0.08911092,-0.04577002,0.46661780,1.31241515
'0:00.117',-0.08911092,-0.04577002,0.46630034,1.34287033
'0:00.117',-0.08878472,-0.04577002,0.46600730,1.37332550
'0:00.117',-0.08878472,-0.04546544,0.46600730,1.37332550
'0:00.117',-0.08848818,-0.04546544,0.46568984,1.40378068
'0:00.118',-0.08819164,-0.04546544,0.46539680,1.43423586
'0:00.118',-0.08819164,-0.04546544,0.46539680,1.46469104
'0:00.118',-0.08786544,-0.04516087,0.46507934,1.49555229
'0:00.118',-0.08756890,-0.04516087,0.46507934,1.52600746
'0:00.118',-0.08756890,-0.04516087,0.46478630,1.52600746
'0:00.119',-0.08727236,-0.04516087,0.46446884,1.55646264
'0:00.119',-0.08697581,-0.04485629,0.46446884,1.55646264
'0:00.119',-0.08664962,-0.04485629,0.46417580,1.58691782
'0:00.119',-0.08664962,-0.04485629,0.46417580,1.58691782
'0:00.119',-0.08635308,-0.04485629,0.46385834,1.58691782
'0:00.120',-0.08605653,-0.04455171,0.46356530,1.61737300
'0:00.120',-0.08573034,-0.04455171,0.46356530,1.61737300
'0:00.120',-0.08543380,-0.04455171,0.46324784,1.61737300
'0:00.120',-0.08513725,-0.04424713,0.46324784,1.61737300
'0:00.120',-0.08513725,-0.04424713,0.46295480,1.64782818
'0:00.121',-0.08484071,-0.04424713,0.46263734,1.64782818
'0:00.121',-0.08451451,-0.04394255,0.46263734,1.64782818
'0:00.121',-0.08421797,-0.04394255,0.46234430,1.67828335
'0:00.121',-0.08392143,-0.04394255,0.46202684,1.67828335
'0:00.121',-0.08392143,-0.04363797,0.46202684,1.70914460
'0:00.122',-0.08359523,-0.04363797,0.46173380,1.70914460
'0:00.122',-0.08329869,-0.04363797,0.46173380,1.70914460
'0:00.122',-0.08329869,-0.04333339,0.46141634,1.70914460
'0:00.122',-0.08300215,-0.04333339,0.46112330,1.70914460
'0:00.122',-0.08300215,-0.04333339,0.46112330,1.70914460
'0:00.123',-0.08300215,-0.04302881,0.46080584,1.70914460
'0:00.123',-0.08300215,-0.04302881,0.46051280,1.70914460
'0:00.123',-0.08300215,-0.04302881,0.46051280,1.70914460
'0:00.123',-0.08300215,-0.04272423,0.46019534,1.70914460
'0:00.123',-0.08300215,-0.04272423,0.46019534,1.70914460
'0:00.124',-0.08300215,-0.04272423,0.45990230,1.70914460
'0:00.124',-0.08300215,-0.04272423,0.45958484,1.70914460
'0:00.124',-0.08329869,-0.04241965,0.45958484,1.70914460
'0:00.124',-0.08329869,-0.04241965,0.45929180,1.70914460
'0:00.124',-0.08359523,-0.04241965,0.45897434,1.70914460
'0:00.125',-0.08392143,-0.04241965,0.45897434,1.70914460
'0:00.125',-0.08421797,-0.04241965,0.45868130,1.70914460
'0:00.125',-0.08451451,-0.04211507,0.45836383,1.70914460
'0:00.125',-0.08484071,-0.04211507,0.45836383,1.70914460
'0:00.125',-0.08513725,-0.04211507,0.45807079,1.70914460
'0:00.126',-0.08543380,-0.04211507,0.45807079,1.70914460
'0:00.126',-0.08573034,-0.04211507,0.45775333,1.70914460
'0:00.126',-0.08635308,-0.04211507,0.45746029,1.70914460
'0:00.126',-0.08664962,-0.04211507,0.45746029,1.73959978
'0:00.126',-0.08697581,-0.04211507,0.45714283,1.73959978
'0:00.127',-0.08756890,-0.04211507,0.45684979,1.73959978
'0:00.127',-0.08786544,-0.04211507,0.45684979,1.77005496
'0:00.127',-0.08848818,-0.04211507,0.45653233,1.77005496
'0:00.127',-0.08878472,-0.04211507,0.45623929,1.77005496
'0:00.127',-0.08940746,-0.04211507,0.45623929,1.77005496
'0:00.128',-0.08970400,-0.04211507,0.45592183,1.77005496
'0:00.128',-0.09032674,-0.04211507,0.45592183,1.80051014
'0:00.128',-0.09091983,-0.04211507,0.45562879,1.80051014
'0:00.128',-0.09124602,-0.04211507,0.45531133,1.80051014
'0:00.128',-0.09183911,-0.04211507,0.45531133,1.80051014
'0:00.129',-0.09246184,-0.04211507,0.45501829,1.80051014
'0:00.129',-0.09275839,-0.04211507,0.45470083,1.77005496
'0:00.129',-0.09338113,-0.04211507,0.45470083,1.77005496
'0:00.129',-0.09397421,-0.04211507,0.45440779,1.77005496
'0:00.129',-0.09430041,-0.04211507,0.45409033,1.73959978
'0:00.130',-0.09489349,-0.04211507,0.45409033,1.73959978
'0:00.130',-0.09551623,-0.04211507,0.45379729,1.70914460
'0:00.130',-0.09610931,-0.04211507,0.45347983,1.67828335
'0:00.130',-0.09673205,-0.04241965,0.45347983,1.67828335
'0:00.130',-0.09732514,-0.04241965,0.45318679,1.64782818
'0:00.131',-0.09794787,-0.04241965,0.45318679,1.61737300
'0:00.131',-0.09824442,-0.04241965,0.45286933,1.61737300
'0:00.131',-0.09886716,-0.04241965,0.45257629,1.58691782
'0:00.131',-0.09948989,-0.04241965,0.45257629,1.55646264
'0:00.131',-0.10008298,-0.04272423,0.45225883,1.52600746
'0:00.132',-0.10070572,-0.04272423,0.45196579,1.49555229
'0:00.132',-0.10129880,-0.04272423,0.45196579,1.46469104
'0:00.132',-0.10192154,-0.04272423,0.45164833,1.43423586
'0:00.132',-0.10251462,-0.04272423,0.45135529,1.40378068
'0:00.132',-0.10313736,-0.04302881,0.45135529,1.37332550
'0:00.133',-0.10376010,-0.04302881,0.45103783,1.34287033
'0:00.133',-0.10435319,-0.04302881,0.45074479,1.28155390
'0:00.133',-0.10527247,-0.04302881,0.45074479,1.25109872
'0:00.133',-0.10589520,-0.04302881,0.45042733,1.22064354
'0:00.133',-0.10648829,-0.04302881,0.45013429,1.15973319
'0:00.134',-0.10711103,-0.04302881,0.45013429,1.12927801
'0:00.134',-0.10770411,-0.04333339,0.44981683,1.06796158
'0:00.134',-0.10832685,-0.04333339,0.44952379,1.00705123
'0:00.134',-0.10894959,-0.04333339,0.44952379,0.97659605
'0:00.134',-0.10983922,-0.04333339,0.44920633,0.91568569
'0:00.135',-0.11046195,-0.04333339,0.44891329,0.85436927
'0:00.135',-0.11108469,-0.04333339,0.44891329,0.79345891
'0:00.135',-0.11167778,-0.04333339,0.44859583,0.70209338
'0:00.135',-0.11259706,-0.04333339,0.44830279,0.67123213
'0:00.135',-0.11321980,-0.04333339,0.44830279,0.61032177
'0:00.136',-0.11381288,-0.04333339,0.44798533,0.54941142
'0:00.136',-0.11443562,-0.04333339,0.44798533,0.51895624
'0:00.136',-0.11502870,-0.04333339,0.44769228,0.45763981
'0:00.136',-0.11594798,-0.04333339,0.44737482,0.42718463
'0:00.136',-0.11657072,-0.04333339,0.44737482,0.39672945
'0:00.137',-0.11716381,-0.04333339,0.44708178,0.36627428
'0:00.137',-0.11778654,-0.04302881,0.44676432,0.33581910
'0:00.137',-0.11840928,-0.04302881,0.44676432,0.30536392
'0:00.137',-0.11900237,-0.04302881,0.44647128,0.27450267
'0:00.137',-0.11962511,-0.04302881,0.44615382,0.24404749
'0:00.138',-0.11992165,-0.04302881,0.44615382,0.21359232
'0:00.138',-0.12054439,-0.04302881,0.44586078,0.21359232
'0:00.138',-0.12113747,-0.04272423,0.44554332,0.18313714
'0:00.138',-0.12143401,-0.04272423,0.44554332,0.15268196
'0:00.138',-0.12205675,-0.04272423,0.44525028,0.12222678
'0:00.139',-0.12235329,-0.04272423,0.44493282,0.09136553
'0:00.139',-0.12267949,-0.04272423,0.44493282,0.03045518
'0:00.139',-0.12327257,-0.04241965,0.44463978,0.00000000
'0:00.139',-0.12359877,-0.04241965,0.44432232,-0.03045518
'0:00.139',-0.12389531,-0.04241965,0.44432232,-0.09136553
'0:00.140',-0.12389531,-0.04241965,0.44402928,-0.15268196
'0:00.140',-0.12419186,-0.04211507,0.44373624,-0.18313714
'0:00.140',-0.12448840,-0.04211507,0.44373624,-0.24404749
'0:00.140',-0.12448840,-0.04211507,0.44341878,-0.27450267
'0:00.140',-0.12481459,-0.04211507,0.44312574,-0.33581910
'0:00.141',-0.12481459,-0.04179664,0.44312574,-0.36627428
'0:00.141',-0.12481459,-0.04179664,0.44280828,-0.39672945
'0:00.141',-0.12481459,-0.04179664,0.44251524,-0.45763981
'0:00.141',-0.12481459,-0.04179664,0.44251524,-0.51895624
'0:00.141',-0.12481459,-0.04149206,0.44219778,-0.54941142
'0:00.142',-0.12481459,-0.04149206,0.44190474,-0.61032177
'0:00.142',-0.12448840,-0.04149206,0.44190474,-0.67123213
'0:00.142',-0.12419186,-0.04118748,0.44158728,-0.73254855
'0:00.142',-0.12419186,-0.04118748,0.44129424,-0.79345891
'0:00.142',-0.12389531,-0.04118748,0.44129424,-0.85436927
'0:00.143',-0.12359877,-0.04088290,0.44097678,-0.91568569
'0:00.143',-0.12327257,-0.04088290,0.44068374,-0.94614087
'0:00.143',-0.12297603,-0.04057832,0.44068374,-1.00705123
'0:00.143',-0.12235329,-0.04057832,0.44036628,-1.06796158
'0:00.143',-0.12205675,-0.04057832,0.44007324,-1.09882283
'0:00.144',-0.12176021,-0.04027375,0.44007324,-1.15973319
'0:00.144',-0.12113747,-0.04027375,0.43975578,-1.19018836
'0:00.144',-0.12054439,-0.03996917,0.43946274,-1.22064354
'0:00.144',-0.12021819,-0.03996917,0.43946274,-1.25109872
'0:00.144',-0.11962511,-0.03966459,0.43914528,-1.28155390
'0:00.145',-0.11900237,-0.03966459,0.43885224,-1.31241515
'0:00.145',-0.11840928,-0.03936001,0.43885224,-1.34287033
'0:00.145',-0.11778654,-0.03936001,0.43853478,-1.37332550
'0:00.145',-0.11749000,-0.03905543,0.43824174,-1.40378068
'0:00.145',-0.11686726,-0.03905543,0.43824174,-1.46469104
'0:00.146',-0.11627418,-0.03875085,0.43792428,-1.49555229
'0:00.146',-0.11565144,-0.03875085,0.43763124,-1.52600746
'0:00.146',-0.11502870,-0.03844627,0.43763124,-1.58691782
'0:00.146',-0.11443562,-0.03844627,0.43731377,-1.61737300
'0:00.146',-0.11381288,-0.03814169,0.43731377,-1.67828335
'0:00.147',-0.11321980,-0.03814169,0.43702073,-1.70914460
'0:00.147',-0.11259706,-0.03783711,0.43670327,-1.77005496
'0:00.147',-0.11197432,-0.03783711,0.43670327,-1.80051014
'0:00.147',-0.11138123,-0.03753253,0.43641023,-1.83096531
'0:00.147',-0.11075850,-0.03753253,0.43609277,-1.86142049
'0:00.148',-0.11016541,-0.03753253,0.43609277,-1.92273692
'0:00.148',-0.10954267,-0.03722795,0.43579973,-1.95319210
'0:00.148',-0.10894959,-0.03722795,0.43548227,-1.98364727
'0:00.148',-0.10832685,-0.03692337,0.43548227,-2.01410245
'0:00.148',-0.10770411,-0.03692337,0.43518923,-2.01410245
'0:00.149',-0.10711103,-0.03661879,0.43487177,-2.04455763
'0:00.149',-0.10648829,-0.03661879,0.43487177,-2.07501281
'0:00.149',-0.10589520,-0.03631421,0.43457873,-2.10587406
'0:00.149',-0.10556901,-0.03631421,0.43426127,-2.13632923
'0:00.149',-0.10497592,-0.03600963,0.43426127,-2.13632923
'0:00.150',-0.10435319,-0.03600963,0.43396823,-2.16678441
'0:00.150',-0.10376010,-0.03570505,0.43365077,-2.19723959
'0:00.150',-0.10343390,-0.03570505,0.43365077,-2.19723959
'0:00.150',-0.10284082,-0.03540047,0.43335773,-2.22769477
'0:00.150',-0.10221808,-0.03540047,0.43304027,-2.25814995
'0:00.151',-0.10192154,-0.03509589,0.43304027,-2.25814995
'0:00.151',-0.10129880,-0.03509589,0.43274723,-2.28901120
'0:00.151',-0.10100226,-0.03479131,0.43242977,-2.28901120
'0:00.151',-0.10037952,-0.03479131,0.43242977,-2.31946637
'0:00.151',-0.10008298,-0.03447289,0.43213673,-2.31946637
'0:00.152',-0.09948989,-0.03447289,0.43181927,-2.31946637
'0:00.152',-0.09916370,-0.03416831,0.43181927,-2.34992155
'0:00.152',-0.09857061,-0.03416831,0.43152623,-2.34992155
'0:00.152',-0.09824442,-0.03386373,0.43120877,-2.34992155
'0:00.152',-0.09794787,-0.03386373,0.43120877,-2.38037673
'0:00.153',-0.09732514,-0.03386373,0.43091573,-2.38037673
'0:00.153',-0.09702859,-0.03355915,0.43059827,-2.38037673
'0:00.153',-0.09673205,-0.03355915,0.43059827,-2.41083191
'0:00.153',-0.09643551,-0.03325457,0.43030523,-2.44128709
'0:00.153',-0.09581277,-0.03325457,0.42998777,-2.44128709
'0:00.154',-0.09551623,-0.03325457,0.42998777,-2.47174226
'0:00.154',-0.09519003,-0.03294999,0.42969473,-2.50260351
'0:00.154',-0.09489349,-0.03294999,0.42937727,-2.50260351
'0:00.154',-0.09459695,-0.03264541,0.42937727,-2.53305869
'0:00.154',-0.09430041,-0.03264541,0.42908423,-2.56351387
'0:00.155',-0.09367767,-0.03264541,0.42876677,-2.59396905
'0:00.155',-0.09338113,-0.03234083,0.42876677,-2.59396905
'0:00.155',-0.09305493,-0.03234083,0.42847373,-2.62442422
'0:00.155',-0.09275839,-0.03203625,0.42815627,-2.62442422
'0:00.155',-0.09246184,-0.03203625,0.42815627,-2.65487940
'0:00.156',-0.09183911,-0.03173167,0.42786323,-2.65487940
'0:00.156',-0.09154256,-0.03173167,0.42786323,-2.65487940
'0:00.156',-0.09124602,-0.03142709,0.42754577,-2.65487940
'0:00.156',-0.09091983,-0.03142709,0.42725273,-2.65487940
'0:00.156',-0.09032674,-0.03112251,0.42725273,-2.65487940
'0:00.157',-0.09003020,-0.03112251,0.42693527,-2.65487940
'0:00.157',-0.08970400,-0.03081793,0.42664222,-2.65487940
'0:00.157',-0.08940746,-0.03081793,0.42664222,-2.65487940
'0:00.157',-0.08878472,-0.03081793,0.42632476,-2.62442422
'0:00.157',-0.08848818,-0.03051335,0.42603172,-2.62442422
'0:00.158',-0.08819164,-0.03051335,0.42603172,-2.62442422
'0:00.158',-0.08756890,-0.03020877,0.42571426,-2.65487940
'0:00.158',-0.08727236,-0.03020877,0.42542122,-2.65487940
'0:00.158',-0.08697581,-0.02990419,0.42542122,-2.65487940
'0:00.158',-0.08664962,-0.02990419,0.42510376,-2.68574065
'0:00.159',-0.08605653,-0.02959961,0.42481072,-2.68574065
'0:00.159',-0.08573034,-0.02959961,0.42481072,-2.71619583
'0:00.159',-0.08543380,-0.02929503,0.42449326,-2.74665101
'0:00.159',-0.08513725,-0.02929503,0.42420022,-2.74665101
'0:00.159',-0.08484071,-0.02929503,0.42420022,-2.77710618
'0:00.160',-0.08421797,-0.02899045,0.42388276,-2.77710618
'0:00.160',-0.08392143,-0.02899045,0.42388276,-2.77710618
'0:00.160',-0.08359523,-0.02868587,0.42358972,-2.80756136
'0:00.160',-0.08329869,-0.02868587,0.42327226,-2.80756136
'0:00.160',-0.08329869,-0.02868587,0.42327226,-2.80756136
'0:00.161',-0.08300215,-0.02838129,0.42297922,-2.77710618
'0:00.161',-0.08270561,-0.02838129,0.42266176,-2.77710618
'0:00.161',-0.08237941,-0.02807671,0.42266176,-2.74665101
'0:00.161',-0.08208287,-0.02807671,0.42236872,-2.74665101
'0:00.161',-0.08208287,-0.02807671,0.42205126,-2.74665101
'0:00.162',-0.08178633,-0.02777213,0.42205126,-2.71619583
'0:00.162',-0.08178633,-0.02777213,0.42175822,-2.71619583
'0:00.162',-0.08146013,-0.02745371,0.42175822,-2.68574065
'0:00.162',-0.08116359,-0.02745371,0.42144076,-2.68574065
'0:00.162',-0.08116359,-0.02745371,0.42114772,-2.65487940
'0:00.163',-0.08086705,-0.02714913,0.42114772,-2.65487940
'0:00.163',-0.08086705,-0.02714913,0.42083026,-2.65487940
'0:00.163',-0.08054085,-0.02684455,0.42053722,-2.62442422
'0:00.163',-0.08054085,-0.02684455,0.42053722,-2.62442422
'0:00.163',-0.08024431,-0.02653997,0.42021976,-2.59396905
'0:00.164',-0.08024431,-0.02653997,0.41992672,-2.59396905
'0:00.164',-0.07994777,-0.02653997,0.41992672,-2.56351387
'0:00.164',-0.07994777,-0.02623539,0.41960926,-2.56351387
'0:00.164',-0.07965122,-0.02623539,0.41960926,-2.53305869
'0:00.164',-0.07965122,-0.02623539,0.41931622,-2.50260351
'0:00.165',-0.07932503,-0.02593081,0.41899876,-2.47174226
'0:00.165',-0.07932503,-0.02593081,0.41899876,-2.44128709
'0:00.165',-0.07932503,-0.02593081,0.41870572,-2.41083191
'0:00.165',-0.07902848,-0.02593081,0.41838826,-2.41083191
'0:00.165',-0.07902848,-0.02593081,0.41838826,-2.38037673
'0:00.166',-0.07873194,-0.02562623,0.41809522,-2.34992155
'0:00.166',-0.07873194,-0.02562623,0.41777776,-2.31946637
'0:00.166',-0.07873194,-0.02562623,0.41777776,-2.28901120
'0:00.166',-0.07873194,-0.02562623,0.41748472,-2.28901120
'0:00.166',-0.07840575,-0.02562623,0.41748472,-2.25814995
'0:00.167',-0.07840575,-0.02562623,0.41716726,-2.25814995
'0:00.167',-0.07840575,-0.02593081,0.41687422,-2.25814995
'0:00.167',-0.07840575,-0.02593081,0.41687422,-2.22769477
'0:00.167',-0.07840575,-0.02593081,0.41655676,-2.22769477
'0:00.167',-0.07840575,-0.02593081,0.41626371,-2.22769477
'0:00.168',-0.07840575,-0.02593081,0.41626371,-2.22769477
'0:00.168',-0.07840575,-0.02623539,0.41594625,-2.22769477
'0:00.168',-0.07840575,-0.02623539,0.41594625,-2.22769477
'0:00.168',-0.07840575,-0.02623539,0.41565321,-2.22769477
'0:00.168',-0.07840575,-0.02623539,0.41533575,-2.19723959
'0:00.169',-0.07840575,-0.02623539,0.41533575,-2.19723959
'0:00.169',-0.07840575,-0.02653997,0.41504271,-2.16678441
'0:00.169',-0.07873194,-0.02653997,0.41472525,-2.13632923
'0:00.169',-0.07873194,-0.02653997,0.41472525,-2.13632923
'0:00.169',-0.07873194,-0.02653997,0.41443221,-2.10587406
'0:00.170',-0.07873194,-0.02653997,0.41443221,-2.07501281
'0:00.170',-0.07902848,-0.02653997,0.41411475,-2.04455763
'0:00.170',-0.07902848,-0.02684455,0.41382171,-2.01410245
'0:00.170',-0.07932503,-0.02684455,0.41382171,-1.98364727
'0:00.170',-0.07932503,-0.02684455,0.41350425,-1.95319210
'0:00.171',-0.07932503,-0.02684455,0.41350425,-1.92273692
'0:00.171',-0.07965122,-0.02684455,0.41321121,-1.92273692
'0:00.171',-0.07965122,-0.02684455,0.41289375,-1.89228174
'0:00.171',-0.07994777,-0.02684455,0.41289375,-1.86142049
'0:00.171',-0.07994777,-0.02684455,0.41260071,-1.83096531
'0:00.172',-0.08024431,-0.02684455,0.41228325,-1.80051014
'0:00.172',-0.08024431,-0.02684455,0.41228325,-1.77005496
'0:00.172',-0.08054085,-0.02684455,0.41199021,-1.73959978
'0:00.172',-0.08054085,-0.02684455,0.41199021,-1.73959978
'0:00.172',-0.08086705,-0.02684455,0.41167275,-1.70914460
'0:00.173',-0.08086705,-0.02684455,0.41137971,-1.67828335
'0:00.173',-0.08116359,-0.02714913,0.41137971,-1.64782818
'0:00.173',-0.08116359,-0.02714913,0.41106225,-1.61737300
'0:00.173',-0.08146013,-0.02714913,0.41106225,-1.58691782
'0:00.173',-0.08146013,-0.02714913,0.41076921,-1.58691782
'0:00.174',-0.08178633,-0.02714913,0.41045175,-1.55646264
'0:00.174',-0.08178633,-0.02714913,0.41045175,-1.52600746
'0:00.174',-0.08178633,-0.02714913,0.41015871,-1.49555229
'0:00.174',-0.08208287,-0.02714913,0.41015871,-1.46469104
'0:00.174',-0.08208287,-0.02684455,0.40984125,-1.43423586
'0:00.175',-0.08208287,-0.02684455,0.40954821,-1.40378068
'0:00.175',-0.08237941,-0.02684455,0.40954821,-1.34287033
'0:00.175',-0.08237941,-0.02684455,0.40923075,-1.31241515
'0:00.175',-0.08237941,-0.02684455,0.40923075,-1.28155390
'0:00.175',-0.08237941,-0.02684455,0.40893771,-1.25109872
'0:00.176',-0.08237941,-0.02684455,0.40862025,-1.19018836
'0:00.176',-0.08237941,-0.02684455,0.40862025,-1.15973319
'0:00.176',-0.08237941,-0.02653997,0.40832721,-1.12927801
'0:00.176',-0.08237941,-0.02653997,0.40832721,-1.09882283
'0:00.176',-0.08237941,-0.02653997,0.40800975,-1.06796158
'0:00.177',-0.08208287,-0.02653997,0.40771671,-1.03750640
'0:00.177',-0.08208287,-0.02653997,0.40771671,-1.00705123
'0:00.177',-0.08208287,-0.02623539,0.40739925,-0.97659605
'0:00.177',-0.08178633,-0.02623539,0.40739925,-0.94614087
'0:00.177',-0.08178633,-0.02623539,0.40710621,-0.94614087
'0:00.178',-0.08146013,-0.02623539,0.40710621,-0.91568569
'0:00.178',-0.08146013,-0.02593081,0.40678875,-0.88482444
'0:00.178',-0.08116359,-0.02593081,0.40649571,-0.88482444
'0:00.178',-0.08116359,-0.02593081,0.40649571,-0.85436927
'0:00.178',-0.08086705,-0.02593081,0.40617825,-0.85436927
'0:00.179',-0.08054085,-0.02562623,0.40617825,-0.82391409
'0:00.179',-0.08024431,-0.02562623,0.40588521,-0.82391409
'0:00.179',-0.08024431,-0.02562623,0.40556774,-0.79345891
'0:00.179',-0.07994777,-0.02532165,0.40556774,-0.79345891
'0:00.179',-0.07965122,-0.02532165,0.40527470,-0.76300373
'0:00.180',-0.07932503,-0.02532165,0.40527470,-0.76300373
'0:00.180',-0.07902848,-0.02532165,0.40495724,-0.73254855
'0:00.180',-0.07873194,-0.02501707,0.40466420,-0.73254855
'0:00.180',-0.07840575,-0.02501707,0.40466420,-0.70209338
'0:00.180',-0.07810920,-0.02501707,0.40434674,-0.67123213
'0:00.181',-0.07751612,-0.02471249,0.40434674,-0.67123213
'0:00.181',-0.07718992,-0.02471249,0.40405370,-0.64077695
'0:00.181',-0.07689338,-0.02471249,0.40405370,-0.61032177
'0:00.181',-0.07659684,-0.02440791,0.40373624,-0.61032177
'0:00.181',-0.07597410,-0.02440791,0.40344320,-0.57986659
'0:00.182',-0.07567756,-0.02440791,0.40344320,-0.54941142
'0:00.182',-0.07505482,-0.02410333,0.40312574,-0.51895624
'0:00.182',-0.07446174,-0.02410333,0.40312574,-0.51895624
'0:00.182',-0.07413554,-0.02410333,0.40283270,-0.48809499
'0:00.182',-0.07354246,-0.02410333,0.40283270,-0.48809499
'0:00.183',-0.07291972,-0.02379875,0.40251524,-0.45763981
'0:00.183',-0.07232663,-0.02379875,0.40222220,-0.42718463
'0:00.183',-0.07200044,-0.02349417,0.40222220,-0.39672945
'0:00.183',-0.07140735,-0.02349417,0.40190474,-0.36627428
'0:00.183',-0.07078461,-0.02349417,0.40190474,-0.33581910
'0:00.184',-0.07019153,-0.02318959,0.40161170,-0.27450267
'0:00.184',-0.06956879,-0.02318959,0.40161170,-0.24404749
'0:00.184',-0.06894605,-0.02318959,0.40129424,-0.21359232
'0:00.184',-0.06835297,-0.02288501,0.40100120,-0.18313714
'0:00.184',-0.06773023,-0.02288501,0.40100120,-0.18313714
'0:00.185',-0.06713714,-0.02288501,0.40068374,-0.15268196
'0:00.185',-0.06651441,-0.02258043,0.40068374,-0.15268196
'0:00.185',-0.06592132,-0.02258043,0.40039070,-0.12222678
'0:00.185',-0.06529858,-0.02258043,0.40039070,-0.09136553
'0:00.185',-0.06500204,-0.02227585,0.40007324,-0.09136553
'0:00.186',-0.06437930,-0.02227585,0.40007324,-0.06091036
'0:00.186',-0.06408276,-0.02227585,0.39978020,-0.06091036
'0:00.186',-0.06346002,-0.02197127,0.39946274,-0.03045518
'0:00.186',-0.06316348,-0.02197127,0.39946274,-0.03045518
'0:00.186',-0.06254074,-0.02197127,0.39916970,-0.03045518
'0:00.187',-0.06224420,-0.02166669,0.39916970,-0.03045518
'0:00.187',-0.06194766,-0.02166669,0.39885224,0.00000000
'0:00.187',-0.06162146,-0.02166669,0.39885224,0.00000000
'0:00.187',-0.06132492,-0.02166669,0.39855920,0.00000000
'0:00.187',-0.06102838,-0.02136211,0.39824174,0.03045518
'0:00.188',-0.06073183,-0.02136211,0.39824174,0.06091036
'0:00.188',-0.06040564,-0.02136211,0.39794870,0.06091036
'0:00.188',-0.06040564,-0.02136211,0.39794870,0.09136553
'0:00.188',-0.06010910,-0.02105753,0.39763124,0.12222678
'0:00.188',-0.06010910,-0.02105753,0.39763124,0.12222678
'0:00.189',-0.05981255,-0.02105753,0.39733820,0.15268196
'0:00.189',-0.05981255,-0.02075295,0.39733820,0.18313714
'0:00.189',-0.05981255,-0.02075295,0.39702074,0.21359232
'0:00.189',-0.05948636,-0.02075295,0.39702074,0.21359232
'0:00.189',-0.05948636,-0.02075295,0.39672770,0.24404749
'0:00.190',-0.05948636,-0.02043453,0.39641024,0.27450267
'0:00.190',-0.05948636,-0.02043453,0.39641024,0.30536392
'0:00.190',-0.05948636,-0.02043453,0.39611720,0.33581910
'0:00.190',-0.05981255,-0.02012995,0.39611720,0.36627428
'0:00.190',-0.05981255,-0.02012995,0.39579974,0.39672945
'0:00.191',-0.05981255,-0.02012995,0.39579974,0.42718463
'0:00.191',-0.05981255,-0.01982537,0.39550670,0.45763981
'0:00.191',-0.06010910,-0.01982537,0.39550670,0.45763981
'0:00.191',-0.06040564,-0.01982537,0.39518923,0.48809499
'0:00.191',-0.06040564,-0.01952079,0.39518923,0.48809499
'0:00.192',-0.06073183,-0.01952079,0.39489619,0.48809499
'0:00.192',-0.06102838,-0.01952079,0.39457873,0.51895624
'0:00.192',-0.06132492,-0.01952079,0.39457873,0.51895624
'0:00.192',-0.06162146,-0.01921621,0.39428569,0.51895624
'0:00.192',-0.06194766,-0.01921621,0.39428569,0.54941142
'0:00.193',-0.06224420,-0.01921621,0.39399265,0.54941142
'0:00.193',-0.06286694,-0.01921621,0.39399265,0.57986659
'0:00.193',-0.06316348,-0.01891163,0.39367519,0.61032177
'0:00.193',-0.06375656,-0.01891163,0.39367519,0.64077695
'0:00.193',-0.06437930,-0.01891163,0.39338215,0.67123213
'0:00.194',-0.06467584,-0.01891163,0.39338215,0.70209338
'0:00.194',-0.06529858,-0.01891163,0.39306469,0.73254855
'0:00.194',-0.06592132,-0.01860705,0.39306469,0.76300373
'0:00.194',-0.06651441,-0.01860705,0.39277165,0.79345891
'0:00.194',-0.06743369,-0.01860705,0.39245419,0.79345891
'0:00.195',-0.06805643,-0.01860705,0.39245419,0.82391409
'0:00.195',-0.06864951,-0.01860705,0.39216115,0.82391409
'0:00.195',-0.06927225,-0.01860705,0.39216115,0.85436927
'0:00.195',-0.07019153,-0.01830247,0.39184369,0.85436927
'0:00.195',-0.07078461,-0.01830247,0.39184369,0.85436927
'0:00.196',-0.07170389,-0.01830247,0.39155065,0.85436927
'0:00.196',-0.07232663,-0.01830247,0.39155065,0.85436927
'0:00.196',-0.07321626,-0.01799789,0.39123319,0.85436927
'0:00.196',-0.07383900,-0.01799789,0.39123319,0.85436927
'0:00.196',-0.07475828,-0.01799789,0.39094015,0.88482444
'0:00.197',-0.07567756,-0.01799789,0.39094015,0.88482444
'0:00.197',-0.07627064,-0.01769331,0.39062269,0.88482444
'0:00.197',-0.07718992,-0.01769331,0.39062269,0.91568569
'0:00.197',-0.07810920,-0.01769331,0.39032965,0.94614087
'0:00.197',-0.07902848,-0.01738873,0.39032965,0.97659605
'0:00.198',-0.07965122,-0.01738873,0.39001219,0.97659605
'0:00.198',-0.08054085,-0.01708415,0.38971915,1.00705123
'0:00.198',-0.08146013,-0.01708415,0.38971915,1.03750640
'0:00.198',-0.08237941,-0.01677957,0.38940169,1.06796158
'0:00.198',-0.08300215,-0.01677957,0.38940169,1.09882283
'0:00.199',-0.08392143,-0.01647499,0.38910865,1.12927801
'0:00.199',-0.08484071,-0.01647499,0.38910865,1.15973319
'0:00.199',-0.08573034,-0.01617041,0.38879119,1.19018836
'0:00.199',-0.08635308,-0.01617041,0.38879119,1.22064354
'0:00.199',-0.08727236,-0.01586583,0.38849815,1.22064354
'0:00.200',-0.08819164,-0.01586583,0.38849815,1.25109872
'0:00.200',-0.08878472,-0.01556125,0.38818069,1.25109872
'0:00.200',-0.08970400,-0.01556125,0.38818069,1.28155390
'0:00.200',-0.09032674,-0.01525667,0.38788765,1.28155390
'0:00.200',-0.09124602,-0.01525667,0.38788765,1.28155390
'0:00.201',-0.09183911,-0.01495210,0.38757019,1.28155390
'0:00.201',-0.09275839,-0.01495210,0.38757019,1.31241515
'0:00.201',-0.09338113,-0.01464752,0.38727715,1.31241515
'0:00.201',-0.09397421,-0.01464752,0.38727715,1.34287033
'0:00.201',-0.09459695,-0.01464752,0.38695969,1.34287033
'0:00.202',-0.09519003,-0.01434294,0.38695969,1.34287033
'0:00.202',-0.09610931,-0.01434294,0.38666665,1.37332550
'0:00.202',-0.09673205,-0.01403836,0.38666665,1.37332550
'0:00.202',-0.09702859,-0.01403836,0.38634919,1.37332550
'0:00.202',-0.09765133,-0.01403836,0.38634919,1.40378068
'0:00.203',-0.09824442,-0.01373378,0.38605615,1.43423586
'0:00.203',-0.09886716,-0.01373378,0.38605615,1.43423586
'0:00.203',-0.09916370,-0.01373378,0.38573869,1.46469104
'0:00.203',-0.09978644,-0.01341535,0.38544565,1.46469104
'0:00.203',-0.10008298,-0.01341535,0.38544565,1.49555229
'0:00.204',-0.10070572,-0.01341535,0.38512819,1.49555229
'0:00.204',-0.10100226,-0.01341535,0.38512819,1.49555229
'0:00.204',-0.10129880,-0.01341535,0.38483515,1.52600746
'0:00.204',-0.10162500,-0.01311077,0.38483515,1.52600746
'0:00.204',-0.10192154,-0.01311077,0.38451768,1.52600746
'0:00.205',-0.10221808,-0.01311077,0.38451768,1.55646264
'0:00.205',-0.10251462,-0.01311077,0.38422464,1.55646264
'0:00.205',-0.10284082,-0.01341535,0.38422464,1.55646264
'0:00.205',-0.10313736,-0.01341535,0.38390718,1.58691782
'0:00.205',-0.10313736,-0.01341535,0.38390718,1.58691782
'0:00.206',-0.10343390,-0.01341535,0.38361414,1.58691782
'0:00.206',-0.10343390,-0.01341535,0.38361414,1.58691782
'0:00.206',-0.10343390,-0.01373378,0.38329668,1.58691782
'0:00.206',-0.10343390,-0.01373378,0.38329668,1.61737300
'0:00.206',-0.10343390,-0.01373378,0.38300364,1.61737300
'0:00.207',-0.10343390,-0.01403836,0.38300364,1.61737300
'0:00.207',-0.10343390,-0.01403836,0.38268618,1.61737300
'0:00.207',-0.10343390,-0.01434294,0.38268618,1.61737300
'0:00.207',-0.10313736,-0.01434294,0.38239314,1.61737300
'0:00.207',-0.10313736,-0.01434294,0.38239314,1.61737300
'0:00.208',-0.10284082,-0.01464752,0.38207568,1.61737300
'0:00.208',-0.10251462,-0.01464752,0.38207568,1.61737300
'0:00.208',-0.10221808,-0.01495210,0.38178264,1.61737300
'0:00.208',-0.10192154,-0.01495210,0.38178264,1.61737300
'0:00.208',-0.10162500,-0.01525667,0.38146518,1.61737300
'0:00.209',-0.10129880,-0.01525667,0.38146518,1.61737300
'0:00.209',-0.10100226,-0.01556125,0.38117214,1.61737300
'0:00.209',-0.10037952,-0.01556125,0.38117214,1.61737300
'0:00.209',-0.10008298,-0.01586583,0.38085468,1.61737300
'0:00.209',-0.09948989,-0.01586583,0.38085468,1.61737300
'0:00.210',-0.09916370,-0.01586583,0.38056164,1.61737300
'0:00.210',-0.09857061,-0.01617041,0.38056164,1.61737300
'0:00.210',-0.09794787,-0.01617041,0.38024418,1.61737300
'0:00.210',-0.09732514,-0.01647499,0.38024418,1.64782818
'0:00.210',-0.09673205,-0.01647499,0.37995114,1.64782818
'0:00.211',-0.09610931,-0.01677957,0.37995114,1.64782818
'0:00.211',-0.09551623,-0.01677957,0.37963368,1.64782818
'0:00.211',-0.09489349,-0.01708415,0.37963368,1.64782818
'0:00.211',-0.09430041,-0.01708415,0.37934064,1.64782818
'0:00.211',-0.09338113,-0.01738873,0.37934064,1.64782818
'0:00.212',-0.09275839,-0.01769331,0.37902318,1.64782818
'0:00.212',-0.09183911,-0.01769331,0.37902318,1.64782818
'0:00.212',-0.09124602,-0.01799789,0.37873014,1.61737300
'0:00.212',-0.09032674,-0.01799789,0.37873014,1.61737300
'0:00.212',-0.08970400,-0.01830247,0.37841268,1.61737300
'0:00.213',-0.08878472,-0.01860705,0.37841268,1.61737300
'0:00.213',-0.08786544,-0.01860705,0.37811964,1.61737300
'0:00.213',-0.08727236,-0.01891163,0.37811964,1.64782818
'0:00.213',-0.08635308,-0.01891163,0.37780218,1.64782818
'0:00.213',-0.08543380,-0.01921621,0.37780218,1.64782818
'0:00.214',-0.08484071,-0.01952079,0.37750914,1.67828335
'0:00.214',-0.08392143,-0.01952079,0.37750914,1.67828335
'0:00.214',-0.08300215,-0.01982537,0.37719168,1.70914460
'0:00.214',-0.08208287,-0.02012995,0.37719168,1.70914460
'0:00.214',-0.08116359,-0.02012995,0.37719168,1.73959978
'0:00.215',-0.08024431,-0.02043453,0.37689864,1.73959978
'0:00.215',-0.07965122,-0.02043453,0.37689864,1.73959978
'0:00.215',-0.07873194,-0.02075295,0.37658118,1.77005496
'0:00.215',-0.07781266,-0.02105753,0.37658118,1.77005496
'0:00.215',-0.07689338,-0.02105753,0.37628814,1.77005496
'0:00.216',-0.07627064,-0.02136211,0.37628814,1.77005496
'0:00.216',-0.07538102,-0.02136211,0.37597068,1.77005496
'0:00.216',-0.07475828,-0.02166669,0.37597068,1.77005496
'0:00.216',-0.07383900,-0.02166669,0.37567764,1.77005496
'0:00.216',-0.07321626,-0.02197127,0.37567764,1.73959978
'0:00.217',-0.07262317,-0.02197127,0.37536018,1.73959978
'0:00.217',-0.07200044,-0.02227585,0.37536018,1.70914460
'0:00.217',-0.07140735,-0.02227585,0.37506714,1.70914460
'0:00.217',-0.07078461,-0.02227585,0.37506714,1.67828335
'0:00.217',-0.07019153,-0.02258043,0.37474968,1.64782818
'0:00.218',-0.06956879,-0.02258043,0.37474968,1.61737300
'0:00.218',-0.06927225,-0.02288501,0.37445664,1.58691782
'0:00.218',-0.06864951,-0.02288501,0.37445664,1.58691782
'0:00.218',-0.06835297,-0.02288501,0.37413917,1.55646264
'0:00.218',-0.06805643,-0.02318959,0.37413917,1.55646264
'0:00.219',-0.06773023,-0.02318959,0.37384613,1.55646264
'0:00.219',-0.06743369,-0.02318959,0.37384613,1.52600746
'0:00.219',-0.06743369,-0.02349417,0.37352867,1.52600746
'0:00.219',-0.06713714,-0.02349417,0.37352867,1.52600746
'0:00.219',-0.06713714,-0.02349417,0.37323563,1.52600746
'0:00.220',-0.06681095,-0.02349417,0.37323563,1.52600746
'0:00.220',-0.06681095,-0.02379875,0.37291817,1.52600746
'0:00.220',-0.06681095,-0.02379875,0.37291817,1.52600746
'0:00.220',-0.06681095,-0.02379875,0.37291817,1.49555229
'0:00.220',-0.06681095,-0.02379875,0.37262513,1.49555229
'0:00.221',-0.06681095,-0.02410333,0.37262513,1.49555229
'0:00.221',-0.06681095,-0.02410333,0.37230767,1.49555229
'0:00.221',-0.06713714,-0.02410333,0.37230767,1.49555229
'0:00.221',-0.06713714,-0.02410333,0.37201463,1.49555229
'0:00.221',-0.06713714,-0.02410333,0.37201463,1.49555229
'0:00.222',-0.06743369,-0.02410333,0.37169717,1.49555229
'0:00.222',-0.06743369,-0.02440791,0.37169717,1.49555229
'0:00.222',-0.06773023,-0.02440791,0.37140413,1.46469104
'0:00.222',-0.06805643,-0.02440791,0.37140413,1.46469104
'0:00.222',-0.06805643,-0.02440791,0.37108667,1.46469104
'0:00.223',-0.06835297,-0.02440791,0.37108667,1.43423586
'0:00.223',-0.06864951,-0.02440791,0.37079363,1.43423586
'0:00.223',-0.06894605,-0.02440791,0.37079363,1.40378068
'0:00.223',-0.06927225,-0.02440791,0.37047617,1.40378068
'0:00.223',-0.06956879,-0.02440791,0.37047617,1.37332550
'0:00.224',-0.06986533,-0.02440791,0.37018313,1.37332550
'0:00.224',-0.07019153,-0.02440791,0.37018313,1.37332550
'0:00.224',-0.07048807,-0.02440791,0.37018313,1.40378068
'0:00.224',-0.07078461,-0.02440791,0.36986567,1.40378068
'0:00.224',-0.07140735,-0.02440791,0.36986567,1.40378068
'0:00.225',-0.07170389,-0.02440791,0.36957263,1.43423586
'0:00.225',-0.07232663,-0.02440791,0.36957263,1.43423586
'0:00.225',-0.07262317,-0.02471249,0.36925517,1.43423586
'0:00.225',-0.07321626,-0.02471249,0.36925517,1.46469104
'0:00.225',-0.07354246,-0.02471249,0.36896213,1.49555229
'0:00.226',-0.07413554,-0.02471249,0.36896213,1.49555229
'0:00.226',-0.07446174,-0.02471249,0.36864467,1.49555229
'0:00.226',-0.07505482,-0.02471249,0.36864467,1.52600746
'0:00.226',-0.07567756,-0.02471249,0.36835163,1.52600746
'0:00.226',-0.07627064,-0.02471249,0.36835163,1.52600746
'0:00.227',-0.07659684,-0.02471249,0.36803417,1.52600746
'0:00.227',-0.07718992,-0.02471249,0.36803417,1.52600746
'0:00.227',-0.07781266,-0.02471249,0.36803417,1.55646264
'0:00.227',-0.07840575,-0.02471249,0.36774113,1.55646264
'0:00.227',-0.07902848,-0.02471249,0.36774113,1.55646264
'0:00.228',-0.07932503,-0.02471249,0.36742367,1.55646264
'0:00.228',-0.07994777,-0.02471249,0.36742367,1.55646264
'0:00.228',-0.08054085,-0.02471249,0.36713063,1.52600746
'0:00.228',-0.08116359,-0.02501707,0.36713063,1.52600746
'0:00.228',-0.08178633,-0.02501707,0.36681317,1.52600746
'0:00.229',-0.08237941,-0.02501707,0.36681317,1.52600746
'0:00.229',-0.08270561,-0.02501707,0.36652013,1.49555229
'0:00.229',-0.08329869,-0.02501707,0.36652013,1.49555229
'0:00.229',-0.08392143,-0.02501707,0.36620267,1.46469104
'0:00.229',-0.08451451,-0.02501707,0.36620267,1.46469104
'0:00.230',-0.08484071,-0.02501707,0.36620267,1.43423586
'0:00.230',-0.08543380,-0.02501707,0.36590963,1.43423586
'0:00.230',-0.08605653,-0.02532165,0.36590963,1.43423586
'0:00.230',-0.08635308,-0.02532165,0.36559217,1.43423586
'0:00.230',-0.08664962,-0.02532165,0.36559217,1.40378068
'0:00.231',-0.08727236,-0.02532165,0.36529913,1.40378068
'0:00.231',-0.08756890,-0.02532165,0.36529913,1.43423586
'0:00.231',-0.08786544,-0.02532165,0.36498167,1.43423586
'0:00.231',-0.08848818,-0.02532165,0.36498167,1.43423586
'0:00.231',-0.08878472,-0.02532165,0.36468863,1.43423586
'0:00.232',-0.08911092,-0.02532165,0.36468863,1.46469104
'0:00.232',-0.08940746,-0.02532165,0.36437117,1.46469104
'0:00.232',-0.08970400,-0.02532165,0.36437117,1.46469104
'0:00.232',-0.09003020,-0.02532165,0.36437117,1.49555229
'0:00.232',-0.09003020,-0.02532165,0.36407813,1.49555229
'0:00.233',-0.09032674,-0.02532165,0.36407813,1.49555229
'0:00.233',-0.09062328,-0.02532165,0.36376067,1.52600746
'0:00.233',-0.09062328,-0.02532165,0.36376067,1.52600746
'0:00.233',-0.09091983,-0.02532165,0.36346762,1.55646264
'0:00.233',-0.09091983,-0.02501707,0.36346762,1.55646264
'0:00.234',-0.09091983,-0.02501707,0.36315016,1.58691782
'0:00.234',-0.09091983,-0.02501707,0.36315016,1.58691782
'0:00.234',-0.09091983,-0.02501707,0.36315016,1.58691782
'0:00.234',-0.09124602,-0.02501707,0.36285712,1.58691782
'0:00.234',-0.09091983,-0.02501707,0.36285712,1.58691782
'0:00.235',-0.09091983,-0.02501707,0.36253966,1.58691782
'0:00.235',-0.09091983,-0.02471249,0.36253966,1.61737300
'0:00.235',-0.09091983,-0.02471249,0.36224662,1.61737300
'0:00.235',-0.09062328,-0.02471249,0.36224662,1.61737300
'0:00.235',-0.09062328,-0.02471249,0.36192916,1.61737300
'0:00.236',-0.09032674,-0.02471249,0.36192916,1.64782818
'0:00.236',-0.09003020,-0.02471249,0.36163612,1.64782818
'0:00.236',-0.08970400,-0.02440791,0.36163612,1.64782818
'0:00.236',-0.08940746,-0.02440791,0.36163612,1.67828335
'0:00.236',-0.08911092,-0.02440791,0.36131866,1.67828335
'0:00.237',-0.08878472,-0.02440791,0.36131866,1.67828335
'0:00.237',-0.08848818,-0.02440791,0.36102562,1.67828335
'0:00.237',-0.08819164,-0.02410333,0.36102562,1.67828335
'0:00.237',-0.08786544,-0.02410333,0.36070816,1.67828335
'0:00.237',-0.08756890,-0.02410333,0.36070816,1.70914460
'0:00.238',-0.08697581,-0.02410333,0.36041512,1.70914460
'0:00.238',-0.08664962,-0.02379875,0.36041512,1.70914460
'0:00.238',-0.08635308,-0.02379875,0.36041512,1.70914460
'0:00.238',-0.08573034,-0.02379875,0.36009766,1.70914460
'0:00.238',-0.08543380,-0.02379875,0.36009766,1.73959978
'0:00.239',-0.08513725,-0.02379875,0.35980462,1.73959978
'0:00.239',-0.08451451,-0.02349417,0.35980462,1.73959978
'0:00.239',-0.08421797,-0.02349417,0.35948716,1.77005496
'0:00.239',-0.08359523,-0.02349417,0.35948716,1.77005496
'0:00.239',-0.08329869,-0.02349417,0.35948716,1.77005496
'0:00.240',-0.08270561,-0.02318959,0.35919412,1.80051014
'0:00.240',-0.08237941,-0.02318959,0.35919412,1.80051014
'0:00.240',-0.08178633,-0.02318959,0.35887666,1.80051014
'0:00.240',-0.08146013,-0.02318959,0.35887666,1.80051014
'0:00.240',-0.08086705,-0.02288501,0.35858362,1.83096531
'0:00.241',-0.08054085,-0.02288501,0.35858362,1.83096531
'0:00.241',-0.07994777,-0.02288501,0.35826616,1.83096531
'0:00.241',-0.07965122,-0.02258043,0.35826616,1.83096531
'0:00.241',-0.07932503,-0.02258043,0.35826616,1.83096531
'0:00.241',-0.07873194,-0.02258043,0.35797312,1.83096531
'0:00.242',-0.07840575,-0.02227585,0.35797312,1.83096531
'0:00.242',-0.07781266,-0.02227585,0.35765566,1.86142049
'0:00.242',-0.07751612,-0.02197127,0.35765566,1.86142049
'0:00.242',-0.07689338,-0.02197127,0.35736262,1.86142049
'0:00.242',-0.07659684,-0.02197127,0.35736262,1.86142049
'0:00.243',-0.07627064,-0.02166669,0.35736262,1.89228174
'0:00.243',-0.07567756,-0.02166669,0.35704516,1.89228174
'0:00.243',-0.07538102,-0.02136211,0.35704516,1.92273692
'0:00.243',-0.07505482,-0.02136211,0.35675212,1.92273692
'0:00.243',-0.07475828,-0.02105753,0.35675212,1.95319210
'0:00.244',-0.07413554,-0.02105753,0.35643466,1.95319210
'0:00.244',-0.07383900,-0.02075295,0.35643466,1.98364727
'0:00.244',-0.07354246,-0.02075295,0.35643466,1.98364727
'0:00.244',-0.07321626,-0.02075295,0.35614162,1.98364727
'0:00.244',-0.07291972,-0.02043453,0.35614162,1.98364727
'0:00.245',-0.07262317,-0.02043453,0.35582416,2.01410245
'0:00.245',-0.07232663,-0.02012995,0.35582416,2.01410245
'0:00.245',-0.07200044,-0.02012995,0.35553112,2.01410245
'0:00.245',-0.07170389,-0.01982537,0.35553112,2.01410245
'0:00.245',-0.07140735,-0.01982537,0.35521366,2.01410245
'0:00.246',-0.07108116,-0.01952079,0.35521366,2.01410245
'0:00.246',-0.07108116,-0.01952079,0.35521366,2.01410245
'0:00.246',-0.07078461,-0.01952079,0.35492062,2.01410245
'0:00.246',-0.07048807,-0.01921621,0.35492062,1.98364727
'0:00.246',-0.07048807,-0.01921621,0.35460316,1.98364727
'0:00.247',-0.07019153,-0.01891163,0.35460316,1.98364727
'0:00.247',-0.07019153,-0.01891163,0.35460316,1.95319210
'0:00.247',-0.07019153,-0.01860705,0.35431012,1.92273692
'0:00.247',-0.06986533,-0.01860705,0.35431012,1.92273692
'0:00.247',-0.06986533,-0.01830247,0.35399266,1.89228174
'0:00.248',-0.06986533,-0.01830247,0.35399266,1.89228174
'0:00.248',-0.06956879,-0.01799789,0.35369962,1.86142049
'0:00.248',-0.06956879,-0.01799789,0.35369962,1.86142049
'0:00.248',-0.06956879,-0.01769331,0.35369962,1.86142049
'0:00.248',-0.06956879,-0.01769331,0.35338216,1.86142049
'0:00.249',-0.06956879,-0.01738873,0.35338216,1.86142049
'0:00.249',-0.06956879,-0.01738873,0.35308911,1.89228174
'0:00.249',-0.06956879,-0.01708415,0.35308911,1.89228174
'0:00.249',-0.06956879,-0.01708415,0.35277165,1.89228174
'0:00.249',-0.06956879,-0.01708415,0.35277165,1.89228174
'0:00.250',-0.06956879,-0.01677957,0.35277165,1.89228174
'0:00.250',-0.06956879,-0.01677957,0.35247861,1.92273692
'0:00.250',-0.06956879,-0.01647499,0.35247861,1.92273692
'0:00.250',-0.06986533,-0.01647499,0.35216115,1.92273692
'0:00.250',-0.06986533,-0.01647499,0.35216115,1.92273692
'0:00.251',-0.06986533,-0.01617041,0.35186811,1.92273692
'0:00.251',-0.06986533,-0.01617041,0.35186811,1.92273692
'0:00.251',-0.06986533,-0.01617041,0.35186811,1.89228174
'0:00.251',-0.07019153,-0.01586583,0.35155065,1.89228174
'0:00.251',-0.07019153,-0.01586583,0.35155065,1.86142049
'0:00.252',-0.07019153,-0.01586583,0.35125761,1.83096531
'0:00.252',-0.07019153,-0.01556125,0.35125761,1.80051014
'0:00.252',-0.07019153,-0.01556125,0.35125761,1.77005496
'0:00.252',-0.07019153,-0.01556125,0.35094015,1.73959978
'0:00.252',-0.07019153,-0.01556125,0.35094015,1.70914460
'0:00.253',-0.07019153,-0.01556125,0.35064711,1.70914460
'0:00.253',-0.07019153,-0.01525667,0.35064711,1.67828335
'0:00.253',-0.07019153,-0.01525667,0.35032965,1.64782818
'0:00.253',-0.07019153,-0.01525667,0.35032965,1.64782818
'0:00.253',-0.07019153,-0.01525667,0.35032965,1.64782818
'0:00.254',-0.07019153,-0.01525667,0.35003661,1.64782818
'0:00.254',-0.06986533,-0.01525667,0.35003661,1.64782818
'0:00.254',-0.06986533,-0.01525667,0.34971915,1.61737300
'0:00.254',-0.06986533,-0.01525667,0.34971915,1.61737300
'0:00.254',-0.06986533,-0.01525667,0.34971915,1.61737300
'0:00.255',-0.06956879,-0.01525667,0.34942611,1.61737300
'0:00.255',-0.06956879,-0.01525667,0.34942611,1.61737300
'0:00.255',-0.06956879,-0.01525667,0.34910865,1.58691782
'0:00.255',-0.06927225,-0.01525667,0.34910865,1.58691782
'0:00.255',-0.06927225,-0.01525667,0.34881561,1.58691782
'0:00.256',-0.06894605,-0.01525667,0.34881561,1.58691782
'0:00.256',-0.06894605,-0.01525667,0.34881561,1.58691782
'0:00.256',-0.06864951,-0.01525667,0.34849815,1.58691782
'0:00.256',-0.06864951,-0.01525667,0.34849815,1.58691782
'0:00.256',-0.06835297,-0.01556125,0.34820511,1.58691782
'0:00.257',-0.06835297,-0.01556125,0.34820511,1.58691782
'0:00.257',-0.06805643,-0.01556125,0.34820511,1.58691782
'0:00.257',-0.06805643,-0.01556125,0.34788765,1.61737300
'0:00.257',-0.06805643,-0.01556125,0.34788765,1.61737300
'0:00.257',-0.06773023,-0.01586583,0.34759461,1.58691782
'0:00.258',-0.06773023,-0.01586583,0.34759461,1.58691782
'0:00.258',-0.06743369,-0.01586583,0.34759461,1.55646264
'0:00.258',-0.06743369,-0.01586583,0.34727715,1.55646264
'0:00.258',-0.06743369,-0.01617041,0.34727715,1.52600746
'0:00.258',-0.06743369,-0.01617041,0.34698411,1.49555229
'0:00.259',-0.06713714,-0.01617041,0.34698411,1.46469104
'0:00.259',-0.06713714,-0.01647499,0.34698411,1.43423586
'0:00.259',-0.06713714,-0.01647499,0.34666665,1.40378068
'0:00.259',-0.06713714,-0.01647499,0.34666665,1.37332550
'0:00.259',-0.06713714,-0.01677957,0.34637361,1.34287033
'0:00.260',-0.06713714,-0.01677957,0.34637361,1.28155390
'0:00.260',-0.06713714,-0.01708415,0.34605615,1.25109872
'0:00.260',-0.06713714,-0.01708415,0.34605615,1.22064354
'0:00.260',-0.06743369,-0.01738873,0.34605615,1.19018836
'0:00.260',-0.06743369,-0.01738873,0.34576311,1.15973319
'0:00.261',-0.06743369,-0.01769331,0.34576311,1.12927801
'0:00.261',-0.06773023,-0.01769331,0.34544565,1.09882283
'0:00.261',-0.06773023,-0.01799789,0.34544565,1.06796158
'0:00.261',-0.06805643,-0.01799789,0.34544565,1.03750640
'0:00.261',-0.06805643,-0.01830247,0.34515261,1.00705123
'0:00.262',-0.06835297,-0.01830247,0.34515261,1.00705123
'0:00.262',-0.06864951,-0.01860705,0.34483515,0.97659605
'0:00.262',-0.06894605,-0.01891163,0.34483515,0.97659605
'0:00.262',-0.06927225,-0.01891163,0.34483515,0.94614087
'0:00.262',-0.06956879,-0.01921621,0.34454211,0.91568569
'0:00.263',-0.06986533,-0.01921621,0.34454211,0.91568569
'0:00.263',-0.07019153,-0.01952079,0.34424907,0.88482444
'0:00.263',-0.07048807,-0.01952079,0.34424907,0.85436927
'0:00.263',-0.07078461,-0.01952079,0.34424907,0.85436927
'0:00.263',-0.07108116,-0.01982537,0.34393161,0.82391409
'0:00.264',-0.07170389,-0.01982537,0.34393161,0.79345891
'0:00.264',-0.07200044,-0.02012995,0.34363857,0.76300373
'0:00.264',-0.07232663,-0.02012995,0.34363857,0.73254855
'0:00.264',-0.07262317,-0.02012995,0.34363857,0.70209338
'0:00.264',-0.07321626,-0.02012995,0.34332111,0.67123213
'0:00.265',-0.07354246,-0.02043453,0.34332111,0.61032177
'0:00.265',-0.07383900,-0.02043453,0.34302807,0.61032177
'0:00.265',-0.07446174,-0.02043453,0.34302807,0.57986659
'0:00.265',-0.07475828,-0.02043453,0.34302807,0.54941142
'0:00.265',-0.07538102,-0.02075295,0.34271061,0.51895624
'0:00.266',-0.07567756,-0.02075295,0.34271061,0.48809499
'0:00.266',-0.07627064,-0.02075295,0.34241756,0.45763981
'0:00.266',-0.07659684,-0.02105753,0.34241756,0.42718463
'0:00.266',-0.07718992,-0.02105753,0.34241756,0.42718463
'0:00.266',-0.07781266,-0.02136211,0.34210010,0.39672945
'0:00.267',-0.07810920,-0.02136211,0.34210010,0.36627428
'0:00.267',-0.07873194,-0.02166669,0.34180706,0.33581910
'0:00.267',-0.07932503,-0.02166669,0.34180706,0.30536392
'0:00.267',-0.07994777,-0.02197127,0.34180706,0.27450267
'0:00.267',-0.08054085,-0.02197127,0.34148960,0.24404749
'0:00.268',-0.08116359,-0.02227585,0.34148960,0.24404749
'0:00.268',-0.08178633,-0.02227585,0.34119656,0.21359232
'0:00.268',-0.08237941,-0.02258043,0.34119656,0.18313714
'0:00.268',-0.08300215,-0.02288501,0.34119656,0.18313714
'0:00.268',-0.08359523,-0.02318959,0.34087910,0.18313714
'0:00.269',-0.08421797,-0.02318959,0.34087910,0.15268196
'0:00.269',-0.08484071,-0.02349417,0.34058606,0.15268196
'0:00.269',-0.08573034,-0.02379875,0.34058606,0.15268196
'0:00.269',-0.08635308,-0.02410333,0.34058606,0.12222678
'0:00.269',-0.08697581,-0.02440791,0.34026860,0.12222678
'0:00.270',-0.08786544,-0.02440791,0.34026860,0.09136553
'0:00.270',-0.08878472,-0.02471249,0.33997556,0.09136553
'0:00.270',-0.08940746,-0.02501707,0.33997556,0.06091036
'0:00.270',-0.09032674,-0.02532165,0.33997556,0.03045518
'0:00.270',-0.09124602,-0.02562623,0.33965810,0.00000000
'0:00.271',-0.09216530,-0.02593081,0.33965810,-0.03045518
'0:00.271',-0.09275839,-0.02593081,0.33936506,-0.06091036
'0:00.271',-0.09367767,-0.02623539,0.33936506,-0.09136553
'0:00.271',-0.09459695,-0.02653997,0.33936506,-0.15268196
'0:00.271',-0.09551623,-0.02684455,0.33904760,-0.18313714
'0:00.272',-0.09643551,-0.02684455,0.33904760,-0.21359232
'0:00.272',-0.09732514,-0.02714913,0.33904760,-0.27450267
'0:00.272',-0.09824442,-0.02714913,0.33875456,-0.30536392
'0:00.272',-0.09916370,-0.02745371,0.33875456,-0.33581910
'0:00.272',-0.10008298,-0.02745371,0.33843710,-0.39672945
'0:00.273',-0.10070572,-0.02777213,0.33843710,-0.42718463
'0:00.273',-0.10162500,-0.02777213,0.33843710,-0.45763981
'0:00.273',-0.10251462,-0.02777213,0.33814406,-0.51895624
'0:00.273',-0.10313736,-0.02807671,0.33814406,-0.54941142
'0:00.273',-0.10405664,-0.02807671,0.33782660,-0.57986659
'0:00.274',-0.10464973,-0.02807671,0.33782660,-0.64077695
'0:00.274',-0.10556901,-0.02807671,0.33782660,-0.67123213
'0:00.274',-0.10619175,-0.02838129,0.33753356,-0.70209338
'0:00.274',-0.10681449,-0.02838129,0.33753356,-0.73254855
'0:00.274',-0.10740757,-0.02838129,0.33721610,-0.76300373
'0:00.275',-0.10803031,-0.02838129,0.33721610,-0.79345891
'0:00.275',-0.10862339,-0.02838129,0.33721610,-0.82391409
'0:00.275',-0.10924613,-0.02838129,0.33692306,-0.85436927
'0:00.275',-0.10954267,-0.02838129,0.33692306,-0.85436927
'0:00.275',-0.11016541,-0.02838129,0.33660560,-0.88482444
'0:00.276',-0.11046195,-0.02838129,0.33660560,-0.88482444
'0:00.276',-0.11075850,-0.02838129,0.33660560,-0.91568569
'0:00.276',-0.11138123,-0.02838129,0.33631256,-0.91568569
'0:00.276',-0.11167778,-0.02838129,0.33631256,-0.94614087
'0:00.276',-0.11197432,-0.02838129,0.33599510,-0.97659605
'0:00.277',-0.11230052,-0.02838129,0.33599510,-0.97659605
'0:00.277',-0.11259706,-0.02838129,0.33599510,-1.00705123
'0:00.277',-0.11259706,-0.02838129,0.33570206,-1.00705123
'0:00.277',-0.11289360,-0.02838129,0.33570206,-1.03750640
'0:00.277',-0.11289360,-0.02838129,0.33538460,-1.06796158
'0:00.278',-0.11321980,-0.02868587,0.33538460,-1.06796158
'0:00.278',-0.11321980,-0.02868587,0.33538460,-1.09882283
'0:00.278',-0.11321980,-0.02868587,0.33509156,-1.12927801
'0:00.278',-0.11321980,-0.02868587,0.33509156,-1.12927801
'0:00.278',-0.11321980,-0.02868587,0.33477410,-1.15973319
'0:00.279',-0.11321980,-0.02868587,0.33477410,-1.19018836
'0:00.279',-0.11289360,-0.02868587,0.33477410,-1.19018836
'0:00.279',-0.11289360,-0.02899045,0.33448106,-1.22064354
'0:00.279',-0.11259706,-0.02899045,0.33448106,-1.25109872
'0:00.279',-0.11259706,-0.02899045,0.33416360,-1.28155390
'0:00.280',-0.11230052,-0.02899045,0.33416360,-1.31241515
'0:00.280',-0.11197432,-0.02899045,0.33416360,-1.34287033
'0:00.280',-0.11167778,-0.02929503,0.33387056,-1.34287033
'0:00.280',-0.11138123,-0.02929503,0.33387056,-1.37332550
'0:00.280',-0.11075850,-0.02929503,0.33387056,-1.40378068
'0:00.281',-0.11046195,-0.02929503,0.33355310,-1.43423586
'0:00.281',-0.10983922,-0.02929503,0.33355310,-1.46469104
'0:00.281',-0.10954267,-0.02959961,0.33326006,-1.46469104
'0:00.281',-0.10894959,-0.02959961,0.33326006,-1.49555229
'0:00.281',-0.10832685,-0.02959961,0.33326006,-1.52600746
'0:00.282',-0.10770411,-0.02959961,0.33294260,-1.55646264
'0:00.282',-0.10711103,-0.02959961,0.33294260,-1.55646264
'0:00.282',-0.10648829,-0.02959961,0.33264956,-1.58691782
'0:00.282',-0.10556901,-0.02959961,0.33264956,-1.58691782
'0:00.282',-0.10497592,-0.02959961,0.33264956,-1.61737300
'0:00.283',-0.10405664,-0.02959961,0.33233210,-1.61737300
'0:00.283',-0.10343390,-0.02959961,0.33233210,-1.61737300
'0:00.283',-0.10251462,-0.02959961,0.33203906,-1.61737300
'0:00.283',-0.10162500,-0.02959961,0.33203906,-1.64782818
'0:00.283',-0.10100226,-0.02959961,0.33203906,-1.64782818
'0:00.284',-0.10008298,-0.02959961,0.33172159,-1.64782818
'0:00.284',-0.09916370,-0.02959961,0.33172159,-1.67828335
'0:00.284',-0.09824442,-0.02959961,0.33142855,-1.67828335
'0:00.284',-0.09732514,-0.02929503,0.33142855,-1.70914460
'0:00.284',-0.09643551,-0.02929503,0.33142855,-1.73959978
'0:00.285',-0.09581277,-0.02929503,0.33111109,-1.73959978
'0:00.285',-0.09489349,-0.02929503,0.33111109,-1.77005496
'0:00.285',-0.09397421,-0.02929503,0.33081805,-1.80051014
'0:00.285',-0.09305493,-0.02929503,0.33081805,-1.80051014
'0:00.285',-0.09216530,-0.02899045,0.33050059,-1.83096531
'0:00.286',-0.09154256,-0.02899045,0.33050059,-1.83096531
'0:00.286',-0.09062328,-0.02899045,0.33050059,-1.83096531
'0:00.286',-0.08970400,-0.02899045,0.33020755,-1.86142049
'0:00.286',-0.08911092,-0.02899045,0.33020755,-1.86142049
'0:00.286',-0.08819164,-0.02868587,0.32989009,-1.86142049
'0:00.287',-0.08756890,-0.02868587,0.32989009,-1.89228174
'0:00.287',-0.08664962,-0.02868587,0.32989009,-1.89228174
'0:00.287',-0.08605653,-0.02868587,0.32959705,-1.92273692
'0:00.287',-0.08513725,-0.02868587,0.32959705,-1.92273692
'0:00.287',-0.08451451,-0.02838129,0.32927959,-1.95319210
'0:00.288',-0.08392143,-0.02838129,0.32927959,-1.95319210
'0:00.288',-0.08300215,-0.02838129,0.32927959,-1.98364727
'0:00.288',-0.08237941,-0.02838129,0.32898655,-1.98364727
'0:00.288',-0.08178633,-0.02807671,0.32898655,-2.01410245
'0:00.288',-0.08116359,-0.02807671,0.32866909,-2.01410245
'0:00.289',-0.08024431,-0.02807671,0.32866909,-2.04455763
'0:00.289',-0.07965122,-0.02777213,0.32866909,-2.04455763
'0:00.289',-0.07902848,-0.02777213,0.32837605,-2.04455763
'0:00.289',-0.07840575,-0.02777213,0.32837605,-2.01410245
'0:00.289',-0.07781266,-0.02745371,0.32805859,-2.01410245
'0:00.290',-0.07718992,-0.02745371,0.32805859,-2.01410245
'0:00.290',-0.07659684,-0.02745371,0.32776555,-2.01410245
'0:00.290',-0.07597410,-0.02714913,0.32776555,-2.01410245
'0:00.290',-0.07538102,-0.02714913,0.32776555,-1.98364727
'0:00.290',-0.07475828,-0.02714913,0.32744809,-1.98364727
'0:00.291',-0.07413554,-0.02684455,0.32744809,-1.98364727
'0:00.291',-0.07354246,-0.02684455,0.32715505,-1.98364727
'0:00.291',-0.07291972,-0.02684455,0.32715505,-1.98364727
'0:00.291',-0.07232663,-0.02653997,0.32683759,-1.98364727
'0:00.291',-0.07200044,-0.02653997,0.32683759,-1.98364727
'0:00.292',-0.07140735,-0.02653997,0.32683759,-1.98364727
'0:00.292',-0.07078461,-0.02623539,0.32654455,-1.98364727
'0:00.292',-0.07048807,-0.02623539,0.32654455,-2.01410245
'0:00.292',-0.06986533,-0.02623539,0.32622709,-2.01410245
'0:00.292',-0.06956879,-0.02593081,0.32622709,-2.01410245
'0:00.293',-0.06894605,-0.02593081,0.32622709,-2.01410245
'0:00.293',-0.06864951,-0.02593081,0.32593405,-2.04455763
'0:00.293',-0.06835297,-0.02562623,0.32593405,-2.04455763
'0:00.293',-0.06805643,-0.02562623,0.32561659,-2.07501281
'0:00.293',-0.06773023,-0.02562623,0.32561659,-2.07501281
'0:00.294',-0.06743369,-0.02562623,0.32532355,-2.10587406
'0:00.294',-0.06713714,-0.02532165,0.32532355,-2.10587406
'0:00.294',-0.06681095,-0.02532165,0.32532355,-2.13632923
'0:00.294',-0.06681095,-0.02532165,0.32500609,-2.13632923
'0:00.294',-0.06651441,-0.02532165,0.32500609,-2.16678441
'0:00.295',-0.06651441,-0.02501707,0.32471305,-2.16678441
'0:00.295',-0.06651441,-0.02501707,0.32471305,-2.16678441
'0:00.295',-0.06651441,-0.02501707,0.32439559,-2.16678441
'0:00.295',-0.06621786,-0.02501707,0.32439559,-2.19723959
'0:00.295',-0.06621786,-0.02471249,0.32410255,-2.19723959
'0:00.296',-0.06621786,-0.02471249,0.32410255,-2.19723959
'0:00.296',-0.06621786,-0.02471249,0.32410255,-2.19723959
'0:00.296',-0.06651441,-0.02471249,0.32378509,-2.22769477
'0:00.296',-0.06651441,-0.02440791,0.32378509,-2.22769477
'0:00.296',-0.06651441,-0.02440791,0.32349205,-2.22769477
'0:00.297',-0.06651441,-0.02440791,0.32349205,-2.22769477
'0:00.297',-0.06681095,-0.02440791,0.32317459,-2.22769477
'0:00.297',-0.06681095,-0.02410333,0.32317459,-2.22769477
'0:00.297',-0.06713714,-0.02410333,0.32288155,-2.22769477
'0:00.297',-0.06743369,-0.02410333,0.32288155,-2.19723959
'0:00.298',-0.06773023,-0.02410333,0.32288155,-2.19723959
'0:00.298',-0.06773023,-0.02379875,0.32256409,-2.19723959
'0:00.298',-0.06805643,-0.02379875,0.32256409,-2.16678441
'0:00.298',-0.06835297,-0.02379875,0.32227105,-2.16678441
'0:00.298',-0.06894605,-0.02379875,0.32227105,-2.13632923
'0:00.299',-0.06927225,-0.02349417,0.32195359,-2.13632923
'0:00.299',-0.06956879,-0.02349417,0.32195359,-2.10587406
'0:00.299',-0.06986533,-0.02349417,0.32166055,-2.10587406
'0:00.299',-0.07048807,-0.02349417,0.32166055,-2.07501281
'0:00.299',-0.07078461,-0.02349417,0.32166055,-2.04455763
'0:00.300',-0.07140735,-0.02349417,0.32134308,-2.01410245
'0:00.300',-0.07200044,-0.02349417,0.32134308,-1.98364727
'0:00.300',-0.07232663,-0.02349417,0.32105004,-1.98364727
'0:00.300',-0.07291972,-0.02349417,0.32105004,-1.95319210
'0:00.300',-0.07354246,-0.02349417,0.32073258,-1.95319210
'0:00.301',-0.07413554,-0.02349417,0.32073258,-1.92273692
'0:00.301',-0.07475828,-0.02349417,0.32043954,-1.92273692
'0:00.301',-0.07538102,-0.02379875,0.32043954,-1.89228174
'0:00.301',-0.07597410,-0.02379875,0.32012208,-1.89228174
'0:00.301',-0.07659684,-0.02379875,0.32012208,-1.89228174
'0:00.302',-0.07718992,-0.02379875,0.31982904,-1.86142049
'0:00.302',-0.07781266,-0.02379875,0.31982904,-1.86142049
'0:00.302',-0.07840575,-0.02410333,0.31982904,-1.86142049
'0:00.302',-0.07902848,-0.02410333,0.31951158,-1.86142049
'0:00.302',-0.07965122,-0.02410333,0.31951158,-1.86142049
'0:00.303',-0.08054085,-0.02440791,0.31921854,-1.86142049
'0:00.303',-0.08116359,-0.02440791,0.31921854,-1.89228174
'0:00.303',-0.08178633,-0.02440791,0.31890108,-1.89228174
'0:00.303',-0.08237941,-0.02440791,0.31890108,-1.89228174
'0:00.303',-0.08300215,-0.02471249,0.31860804,-1.92273692
'0:00.304',-0.08359523,-0.02471249,0.31860804,-1.92273692
'0:00.304',-0.08421797,-0.02471249,0.31829058,-1.92273692
'0:00.304',-0.08484071,-0.02501707,0.31829058,-1.92273692
'0:00.304',-0.08513725,-0.02501707,0.31799754,-1.92273692
'0:00.304',-0.08573034,-0.02501707,0.31799754,-1.92273692
'0:00.305',-0.08635308,-0.02501707,0.31768008,-1.92273692
'0:00.305',-0.08697581,-0.02532165,0.31768008,-1.92273692
'0:00.305',-0.08756890,-0.02532165,0.31738704,-1.92273692
'0:00.305',-0.08786544,-0.02532165,0.31738704,-1.89228174
'0:00.305',-0.08848818,-0.02532165,0.31706958,-1.89228174
'0:00.306',-0.08911092,-0.02532165,0.31706958,-1.86142049
'0:00.306',-0.08940746,-0.02532165,0.31677654,-1.86142049
'0:00.306',-0.09003020,-0.02562623,0.31677654,-1.83096531
'0:00.306',-0.09062328,-0.02562623,0.31677654,-1.83096531
'0:00.306',-0.09091983,-0.02562623,0.31645908,-1.83096531
'0:00.307',-0.09154256,-0.02562623,0.31645908,-1.83096531
'0:00.307',-0.09183911,-0.02562623,0.31616604,-1.83096531
'0:00.307',-0.09216530,-0.02562623,0.31616604,-1.83096531
'0:00.307',-0.09275839,-0.02562623,0.31584858,-1.83096531
'0:00.307',-0.09305493,-0.02562623,0.31584858,-1.80051014
'0:00.308',-0.09338113,-0.02593081,0.31555554,-1.80051014
'0:00.308',-0.09367767,-0.02593081,0.31555554,-1.80051014
'0:00.308',-0.09397421,-0.02593081,0.31523808,-1.77005496
'0:00.308',-0.09430041,-0.02593081,0.31523808,-1.77005496
'0:00.308',-0.09459695,-0.02593081,0.31494504,-1.73959978
'0:00.309',-0.09489349,-0.02593081,0.31494504,-1.70914460
'0:00.309',-0.09519003,-0.02623539,0.31462758,-1.67828335
'0:00.309',-0.09519003,-0.02623539,0.31462758,-1.64782818
'0:00.309',-0.09551623,-0.02623539,0.31433454,-1.64782818
'0:00.309',-0.09581277,-0.02623539,0.31433454,-1.61737300
'0:00.310',-0.09581277,-0.02623539,0.31401708,-1.58691782
'0:00.310',-0.09610931,-0.02623539,0.31401708,-1.55646264
'0:00.310',-0.09610931,-0.02653997,0.31372404,-1.55646264
'0:00.310',-0.09610931,-0.02653997,0.31372404,-1.52600746
'0:00.310',-0.09610931,-0.02653997,0.31340658,-1.49555229
'0:00.311',-0.09643551,-0.02653997,0.31340658,-1.49555229
'0:00.311',-0.09643551,-0.02653997,0.31311354,-1.46469104
'0:00.311',-0.09643551,-0.02684455,0.31311354,-1.46469104
'0:00.311',-0.09610931,-0.02684455,0.31279608,-1.46469104
'0:00.311',-0.09610931,-0.02684455,0.31279608,-1.46469104
'0:00.312',-0.09610931,-0.02684455,0.31250304,-1.43423586
'0:00.312',-0.09610931,-0.02684455,0.31250304,-1.43423586
'0:00.312',-0.09581277,-0.02684455,0.31218558,-1.43423586
'0:00.312',-0.09581277,-0.02684455,0.31218558,-1.43423586
'0:00.312',-0.09551623,-0.02684455,0.31189254,-1.43423586
'0:00.313',-0.09551623,-0.02684455,0.31189254,-1.43423586
'0:00.313',-0.09519003,-0.02684455,0.31157508,-1.43423586
'0:00.313',-0.09489349,-0.02714913,0.31157508,-1.43423586
'0:00.313',-0.09459695,-0.02714913,0.31128204,-1.40378068
'0:00.313',-0.09430041,-0.02714913,0.31128204,-1.40378068
'0:00.314',-0.09397421,-0.02714913,0.31096458,-1.37332550
'0:00.314',-0.09367767,-0.02714913,0.31096458,-1.34287033
'0:00.314',-0.09338113,-0.02714913,0.31067153,-1.34287033
'0:00.314',-0.09305493,-0.02684455,0.31067153,-1.31241515
'0:00.314',-0.09246184,-0.02684455,0.31035407,-1.31241515
'0:00.315',-0.09216530,-0.02684455,0.31035407,-1.28155390
'0:00.315',-0.09154256,-0.02684455,0.31006103,-1.25109872
'0:00.315',-0.09091983,-0.02684455,0.31006103,-1.25109872
'0:00.315',-0.09032674,-0.02684455,0.30974357,-1.22064354
'0:00.315',-0.08970400,-0.02684455,0.30974357,-1.19018836
'0:00.316',-0.08911092,-0.02653997,0.30945053,-1.15973319
'0:00.316',-0.08848818,-0.02653997,0.30945053,-1.15973319
'0:00.316',-0.08786544,-0.02653997,0.30913307,-1.15973319
'0:00.316',-0.08697581,-0.02623539,0.30913307,-1.12927801
'0:00.316',-0.08635308,-0.02623539,0.30884003,-1.12927801
'0:00.317',-0.08543380,-0.02593081,0.30884003,-1.12927801
'0:00.317',-0.08451451,-0.02593081,0.30852257,-1.12927801
'0:00.317',-0.08392143,-0.02593081,0.30852257,-1.12927801
'0:00.317',-0.08300215,-0.02562623,0.30822953,-1.12927801
'0:00.317',-0.08208287,-0.02562623,0.30822953,-1.09882283
'0:00.318',-0.08116359,-0.02532165,0.30791207,-1.09882283
'0:00.318',-0.08024431,-0.02532165,0.30761903,-1.09882283
'0:00.318',-0.07932503,-0.02501707,0.30761903,-1.09882283
'0:00.318',-0.07840575,-0.02471249,0.30730157,-1.09882283
'0:00.318',-0.07751612,-0.02471249,0.30730157,-1.06796158
'0:00.319',-0.07659684,-0.02440791,0.30700853,-1.06796158
'0:00.319',-0.07567756,-0.02440791,0.30700853,-1.06796158
'0:00.319',-0.07446174,-0.02410333,0.30669107,-1.06796158
'0:00.319',-0.07354246,-0.02410333,0.30669107,-1.06796158
'0:00.319',-0.07262317,-0.02379875,0.30639803,-1.06796158
'0:00.320',-0.07170389,-0.02379875,0.30639803,-1.03750640
'0:00.320',-0.07078461,-0.02349417,0.30608057,-1.03750640
'0:00.320',-0.06956879,-0.02349417,0.30608057,-1.03750640
'0:00.320',-0.06864951,-0.02318959,0.30578753,-1.03750640
'0:00.320',-0.06773023,-0.02318959,0.30578753,-1.00705123
'0:00.321',-0.06681095,-0.02318959,0.30547007,-1.00705123
'0:00.321',-0.06592132,-0.02288501,0.30547007,-1.00705123
'0:00.321',-0.06500204,-0.02288501,0.30517703,-1.00705123
'0:00.321',-0.06408276,-0.02258043,0.30517703,-1.00705123
'0:00.321',-0.06316348,-0.02258043,0.30485957,-1.00705123
'0:00.322',-0.06224420,-0.02227585,0.30485957,-1.00705123
'0:00.322',-0.06132492,-0.02227585,0.30456653,-1.00705123
'0:00.322',-0.06040564,-0.02227585,0.30456653,-1.00705123
'0:00.322',-0.05948636,-0.02197127,0.30424907,-1.00705123
'0:00.322',-0.05889327,-0.02197127,0.30424907,-1.00705123
'0:00.323',-0.05797399,-0.02166669,0.30395603,-1.00705123
'0:00.323',-0.05705471,-0.02166669,0.30395603,-0.97659605
'0:00.323',-0.05643197,-0.02166669,0.30363857,-0.97659605
'0:00.323',-0.05554235,-0.02136211,0.30363857,-0.94614087
'0:00.323',-0.05491961,-0.02136211,0.30334553,-0.94614087
'0:00.324',-0.05400033,-0.02136211,0.30334553,-0.91568569
'0:00.324',-0.05340724,-0.02105753,0.30302807,-0.88482444
'0:00.324',-0.05278450,-0.02105753,0.30302807,-0.85436927
'0:00.324',-0.05216177,-0.02105753,0.30273503,-0.82391409
'0:00.324',-0.05156868,-0.02105753,0.30273503,-0.79345891
'0:00.325',-0.05094594,-0.02075295,0.30241757,-0.76300373
'0:00.325',-0.05035286,-0.02075295,0.30241757,-0.73254855
'0:00.325',-0.04973012,-0.02075295,0.30212453,-0.70209338
'0:00.325',-0.04943358,-0.02075295,0.30180707,-0.70209338
'0:00.325',-0.04881084,-0.02075295,0.30180707,-0.67123213
'0:00.326',-0.04851430,-0.02075295,0.30151403,-0.64077695
'0:00.326',-0.04821775,-0.02075295,0.30151403,-0.64077695
'0:00.326',-0.04789156,-0.02075295,0.30119657,-0.61032177
'0:00.326',-0.04759502,-0.02075295,0.30119657,-0.61032177
'0:00.326',-0.04759502,-0.02075295,0.30090353,-0.61032177
'0:00.327',-0.04729847,-0.02075295,0.30090353,-0.61032177
'0:00.327',-0.04729847,-0.02075295,0.30058607,-0.61032177
'0:00.327',-0.04729847,-0.02075295,0.30058607,-0.64077695
'0:00.327',-0.04759502,-0.02075295,0.30029302,-0.64077695
'0:00.327',-0.04759502,-0.02075295,0.30029302,-0.67123213
'0:00.328',-0.04789156,-0.02105753,0.29997556,-0.67123213
'0:00.328',-0.04789156,-0.02105753,0.29997556,-0.70209338
'0:00.328',-0.04821775,-0.02105753,0.29968252,-0.73254855
'0:00.328',-0.04881084,-0.02105753,0.29968252,-0.73254855
'0:00.328',-0.04910738,-0.02105753,0.29936506,-0.76300373
'0:00.329',-0.04943358,-0.02136211,0.29936506,-0.79345891
'0:00.329',-0.05002666,-0.02136211,0.29907202,-0.79345891
'0:00.329',-0.05064940,-0.02136211,0.29907202,-0.82391409
'0:00.329',-0.05127214,-0.02136211,0.29875456,-0.82391409
'0:00.329',-0.05186522,-0.02136211,0.29875456,-0.85436927
'0:00.330',-0.05248796,-0.02166669,0.29846152,-0.85436927
'0:00.330',-0.05340724,-0.02166669,0.29846152,-0.85436927
'0:00.330',-0.05400033,-0.02166669,0.29814406,-0.85436927
'0:00.330',-0.05491961,-0.02166669,0.29814406,-0.85436927
'0:00.330',-0.05583889,-0.02197127,0.29785102,-0.85436927
'0:00.331',-0.05643197,-0.02197127,0.29785102,-0.85436927
'0:00.331',-0.05735125,-0.02197127,0.29753356,-0.85436927
'0:00.331',-0.05827053,-0.02197127,0.29753356,-0.85436927
'0:00.331',-0.05918981,-0.02227585,0.29724052,-0.82391409
'0:00.331',-0.06010910,-0.02227585,0.29724052,-0.82391409
'0:00.332',-0.06132492,-0.02227585,0.29692306,-0.82391409
'0:00.332',-0.06224420,-0.02227585,0.29692306,-0.79345891
'0:00.332',-0.06316348,-0.02258043,0.29663002,-0.79345891
'0:00.332',-0.06437930,-0.02258043,0.29663002,-0.79345891
'0:00.332',-0.06529858,-0.02258043,0.29631256,-0.76300373
'0:00.333',-0.06651441,-0.02258043,0.29631256,-0.73254855
'0:00.333',-0.06743369,-0.02258043,0.29601952,-0.73254855
'0:00.333',-0.06864951,-0.02288501,0.29601952,-0.70209338
'0:00.333',-0.06956879,-0.02288501,0.29570206,-0.70209338
'0:00.333',-0.07078461,-0.02288501,0.29570206,-0.67123213
'0:00.334',-0.07200044,-0.02318959,0.29540902,-0.64077695
'0:00.334',-0.07321626,-0.02318959,0.29540902,-0.64077695
'0:00.334',-0.07446174,-0.02318959,0.29509156,-0.64077695
'0:00.334',-0.07567756,-0.02318959,0.29509156,-0.61032177
'0:00.334',-0.07689338,-0.02318959,0.29479852,-0.61032177
'0:00.335',-0.07781266,-0.02349417,0.29479852,-0.61032177
'0:00.335',-0.07902848,-0.02349417,0.29448106,-0.61032177
'0:00.335',-0.08024431,-0.02349417,0.29448106,-0.61032177
'0:00.335',-0.08146013,-0.02349417,0.29418802,-0.61032177
'0:00.335',-0.08270561,-0.02349417,0.29418802,-0.61032177
'0:00.336',-0.08392143,-0.02349417,0.29389498,-0.61032177
'0:00.336',-0.08484071,-0.02349417,0.29389498,-0.64077695
'0:00.336',-0.08605653,-0.02349417,0.29357752,-0.64077695
'0:00.336',-0.08727236,-0.02349417,0.29357752,-0.64077695
'0:00.336',-0.08819164,-0.02349417,0.29328448,-0.64077695
'0:00.337',-0.08940746,-0.02349417,0.29328448,-0.64077695
'0:00.337',-0.09032674,-0.02349417,0.29296702,-0.61032177
'0:00.337',-0.09154256,-0.02349417,0.29296702,-0.61032177
'0:00.337',-0.09246184,-0.02349417,0.29267398,-0.61032177
'0:00.337',-0.09338113,-0.02379875,0.29267398,-0.61032177
'0:00.338',-0.09430041,-0.02379875,0.29235652,-0.61032177
'0:00.338',-0.09519003,-0.02379875,0.29235652,-0.61032177
'0:00.338',-0.09610931,-0.02379875,0.29206348,-0.61032177
'0:00.338',-0.09702859,-0.02379875,0.29206348,-0.61032177
'0:00.338',-0.09794787,-0.02379875,0.29174602,-0.64077695
'0:00.339',-0.09886716,-0.02379875,0.29174602,-0.64077695
'0:00.339',-0.09948989,-0.02379875,0.29145298,-0.67123213
'0:00.339',-0.10037952,-0.02379875,0.29145298,-0.67123213
'0:00.339',-0.10100226,-0.02379875,0.29113552,-0.70209338
'0:00.339',-0.10162500,-0.02410333,0.29113552,-0.73254855
'0:00.340',-0.10221808,-0.02410333,0.29084248,-0.76300373
'0:00.340',-0.10284082,-0.02410333,0.29084248,-0.76300373
'0:00.340',-0.10343390,-0.02410333,0.29084248,-0.79345891
'0:00.340',-0.10405664,-0.02410333,0.29052502,-0.79345891
'0:00.340',-0.10464973,-0.02410333,0.29052502,-0.82391409
'0:00.341',-0.10497592,-0.02440791,0.29023198,-0.82391409
'0:00.341',-0.10556901,-0.02440791,0.29023198,-0.82391409
'0:00.341',-0.10589520,-0.02440791,0.28991452,-0.82391409
'0:00.341',-0.10619175,-0.02440791,0.28991452,-0.82391409
'0:00.341',-0.10648829,-0.02440791,0.28962147,-0.82391409
'0:00.342',-0.10681449,-0.02440791,0.28962147,-0.79345891
'0:00.342',-0.10711103,-0.02440791,0.28930401,-0.79345891
'0:00.342',-0.10740757,-0.02440791,0.28930401,-0.79345891
'0:00.342',-0.10740757,-0.02471249,0.28901097,-0.76300373
'0:00.342',-0.10740757,-0.02471249,0.28901097,-0.73254855
'0:00.343',-0.10770411,-0.02471249,0.28869351,-0.73254855
'0:00.343',-0.10770411,-0.02471249,0.28869351,-0.70209338
'0:00.343',-0.10770411,-0.02471249,0.28840047,-0.67123213
'0:00.343',-0.10740757,-0.02471249,0.28840047,-0.64077695
'0:00.343',-0.10740757,-0.02471249,0.28808301,-0.64077695
'0:00.344',-0.10711103,-0.02471249,0.28808301,-0.61032177
'0:00.344',-0.10711103,-0.02471249,0.28808301,-0.61032177
'0:00.344',-0.10681449,-0.02471249,0.28778997,-0.57986659
'0:00.344',-0.10648829,-0.02471249,0.28778997,-0.57986659
'0:00.344',-0.10619175,-0.02501707,0.28747251,-0.57986659
'0:00.345',-0.10556901,-0.02501707,0.28747251,-0.57986659
'0:00.345',-0.10527247,-0.02501707,0.28717947,-0.57986659
'0:00.345',-0.10464973,-0.02501707,0.28717947,-0.57986659
'0:00.345',-0.10435319,-0.02501707,0.28686201,-0.57986659
'0:00.345',-0.10376010,-0.02501707,0.28686201,-0.54941142
'0:00.346',-0.10313736,-0.02501707,0.28656897,-0.54941142
'0:00.346',-0.10251462,-0.02501707,0.28656897,-0.54941142
'0:00.346',-0.10162500,-0.02501707,0.28625151,-0.57986659
'0:00.346',-0.10100226,-0.02501707,0.28625151,-0.57986659
'0:00.346',-0.10008298,-0.02532165,0.28625151,-0.57986659
'0:00.347',-0.09948989,-0.02532165,0.28595847,-0.61032177
'0:00.347',-0.09857061,-0.02532165,0.28595847,-0.61032177
'0:00.347',-0.09765133,-0.02532165,0.28564101,-0.64077695
'0:00.347',-0.09673205,-0.02532165,0.28564101,-0.64077695
'0:00.347',-0.09581277,-0.02532165,0.28534797,-0.64077695
'0:00.348',-0.09489349,-0.02562623,0.28534797,-0.67123213
'0:00.348',-0.09397421,-0.02562623,0.28503051,-0.67123213
'0:00.348',-0.09275839,-0.02562623,0.28503051,-0.67123213
'0:00.348',-0.09183911,-0.02562623,0.28473747,-0.67123213
'0:00.348',-0.09062328,-0.02562623,0.28473747,-0.67123213
'0:00.349',-0.08970400,-0.02562623,0.28473747,-0.67123213
'0:00.349',-0.08848818,-0.02562623,0.28442001,-0.67123213
'0:00.349',-0.08727236,-0.02593081,0.28442001,-0.67123213
'0:00.349',-0.08605653,-0.02593081,0.28412697,-0.67123213
'0:00.349',-0.08513725,-0.02593081,0.28412697,-0.67123213
'0:00.350',-0.08392143,-0.02593081,0.28380951,-0.67123213
'0:00.350',-0.08270561,-0.02593081,0.28380951,-0.64077695
'0:00.350',-0.08146013,-0.02593081,0.28351647,-0.64077695
'0:00.350',-0.08024431,-0.02593081,0.28351647,-0.61032177
'0:00.350',-0.07932503,-0.02593081,0.28351647,-0.57986659
'0:00.351',-0.07810920,-0.02623539,0.28319901,-0.57986659
'0:00.351',-0.07689338,-0.02623539,0.28319901,-0.54941142
'0:00.351',-0.07567756,-0.02623539,0.28290597,-0.54941142
'0:00.351',-0.07475828,-0.02623539,0.28290597,-0.51895624
'0:00.351',-0.07354246,-0.02623539,0.28258851,-0.51895624
'0:00.352',-0.07262317,-0.02623539,0.28258851,-0.48809499
'0:00.352',-0.07140735,-0.02623539,0.28258851,-0.48809499
'0:00.352',-0.07048807,-0.02623539,0.28229547,-0.48809499
'0:00.352',-0.06927225,-0.02623539,0.28229547,-0.45763981
'0:00.352',-0.06835297,-0.02623539,0.28197801,-0.45763981
'0:00.353',-0.06743369,-0.02653997,0.28197801,-0.45763981
'0:00.353',-0.06651441,-0.02653997,0.28168497,-0.45763981
'0:00.353',-0.06559513,-0.02653997,0.28168497,-0.45763981
'0:00.353',-0.06467584,-0.02653997,0.28168497,-0.42718463
'0:00.353',-0.06408276,-0.02653997,0.28136751,-0.42718463
'0:00.354',-0.06316348,-0.02653997,0.28136751,-0.42718463
'0:00.354',-0.06224420,-0.02653997,0.28107447,-0.42718463
'0:00.354',-0.06162146,-0.02653997,0.28107447,-0.42718463
'0:00.354',-0.06073183,-0.02653997,0.28075701,-0.42718463
'0:00.354',-0.06010910,-0.02623539,0.28075701,-0.42718463
'0:00.355',-0.05948636,-0.02623539,0.28075701,-0.42718463
'0:00.355',-0.05889327,-0.02623539,0.28046397,-0.42718463
'0:00.355',-0.05827053,-0.02623539,0.28046397,-0.42718463
'0:00.355',-0.05767745,-0.02623539,0.28014651,-0.39672945
'0:00.355',-0.05705471,-0.02623539,0.28014651,-0.39672945
'0:00.356',-0.05643197,-0.02623539,0.28014651,-0.39672945
'0:00.356',-0.05583889,-0.02593081,0.27985347,-0.36627428
'0:00.356',-0.05521615,-0.02593081,0.27985347,-0.36627428
'0:00.356',-0.05491961,-0.02593081,0.27953601,-0.33581910
'0:00.356',-0.05429687,-0.02593081,0.27953601,-0.33581910
'0:00.357',-0.05400033,-0.02562623,0.27953601,-0.30536392
'0:00.357',-0.05340724,-0.02562623,0.27924296,-0.30536392
'0:00.357',-0.05308105,-0.02562623,0.27924296,-0.27450267
'0:00.357',-0.05248796,-0.02562623,0.27892550,-0.24404749
'0:00.357',-0.05216177,-0.02562623,0.27892550,-0.24404749
'0:00.358',-0.05186522,-0.02532165,0.27863246,-0.21359232
'0:00.358',-0.05156868,-0.02532165,0.27863246,-0.18313714
'0:00.358',-0.05127214,-0.02532165,0.27863246,-0.18313714
'0:00.358',-0.05094594,-0.02532165,0.27831500,-0.18313714
'0:00.358',-0.05064940,-0.02532165,0.27831500,-0.15268196
'0:00.359',-0.05064940,-0.02532165,0.27802196,-0.15268196
'0:00.359',-0.05035286,-0.02501707,0.27802196,-0.15268196
'0:00.359',-0.05035286,-0.02501707,0.27802196,-0.15268196
'0:00.359',-0.05002666,-0.02501707,0.27770450,-0.15268196
'0:00.359',-0.05002666,-0.02501707,0.27770450,-0.15268196
'0:00.360',-0.05002666,-0.02501707,0.27741146,-0.15268196
'0:00.360',-0.05002666,-0.02501707,0.27741146,-0.18313714
'0:00.360',-0.05002666,-0.02501707,0.27741146,-0.18313714
'0:00.360',-0.05002666,-0.02501707,0.27709400,-0.18313714
'0:00.360',-0.05002666,-0.02471249,0.27709400,-0.18313714
'0:00.361',-0.05035286,-0.02471249,0.27709400,-0.18313714
'0:00.361',-0.05035286,-0.02471249,0.27680096,-0.18313714
'0:00.361',-0.05064940,-0.02471249,0.27680096,-0.18313714
'0:00.361',-0.05064940,-0.02471249,0.27648350,-0.15268196
'0:00.361',-0.05094594,-0.02471249,0.27648350,-0.15268196
'0:00.362',-0.05127214,-0.02471249,0.27648350,-0.15268196
'0:00.362',-0.05127214,-0.02471249,0.27619046,-0.12222678
'0:00.362',-0.05156868,-0.02471249,0.27619046,-0.12222678
'0:00.362',-0.05186522,-0.02471249,0.27587300,-0.12222678
'0:00.362',-0.05216177,-0.02440791,0.27587300,-0.12222678
'0:00.363',-0.05248796,-0.02440791,0.27587300,-0.12222678
'0:00.363',-0.05278450,-0.02440791,0.27557996,-0.12222678
'0:00.363',-0.05308105,-0.02440791,0.27557996,-0.12222678
'0:00.363',-0.05340724,-0.02440791,0.27557996,-0.12222678
'0:00.363',-0.05370378,-0.02440791,0.27526250,-0.12222678
'0:00.364',-0.05429687,-0.02440791,0.27526250,-0.12222678
'0:00.364',-0.05462307,-0.02440791,0.27496946,-0.12222678
'0:00.364',-0.05491961,-0.02440791,0.27496946,-0.12222678
'0:00.364',-0.05521615,-0.02471249,0.27496946,-0.12222678
'0:00.364',-0.05583889,-0.02471249,0.27465200,-0.12222678
'0:00.365',-0.05613543,-0.02471249,0.27465200,-0.12222678
'0:00.365',-0.05675817,-0.02471249,0.27465200,-0.12222678
'0:00.365',-0.05705471,-0.02471249,0.27435896,-0.12222678
'0:00.365',-0.05767745,-0.02501707,0.27435896,-0.12222678
'0:00.365',-0.05827053,-0.02501707,0.27404150,-0.12222678
'0:00.366',-0.05889327,-0.02501707,0.27404150,-0.12222678
'0:00.366',-0.05948636,-0.02532165,0.27404150,-0.09136553
'0:00.366',-0.06010910,-0.02532165,0.27374846,-0.09136553
'0:00.366',-0.06073183,-0.02532165,0.27374846,-0.09136553
'0:00.366',-0.06132492,-0.02562623,0.27374846,-0.06091036
'0:00.367',-0.06194766,-0.02562623,0.27343100,-0.06091036
'0:00.367',-0.06286694,-0.02593081,0.27343100,-0.03045518
'0:00.367',-0.06346002,-0.02593081,0.27343100,-0.03045518
'0:00.367',-0.06408276,-0.02623539,0.27313796,0.00000000
'0:00.367',-0.06500204,-0.02653997,0.27313796,0.00000000
'0:00.368',-0.06559513,-0.02653997,0.27282050,0.03045518
'0:00.368',-0.06651441,-0.02684455,0.27282050,0.03045518
'0:00.368',-0.06713714,-0.02714913,0.27282050,0.06091036
'0:00.368',-0.06805643,-0.02714913,0.27252746,0.06091036
'0:00.368',-0.06864951,-0.02745371,0.27252746,0.09136553
'0:00.369',-0.06927225,-0.02777213,0.27252746,0.09136553
'0:00.369',-0.07019153,-0.02777213,0.27221000,0.09136553
'0:00.369',-0.07078461,-0.02807671,0.27221000,0.12222678
'0:00.369',-0.07140735,-0.02838129,0.27221000,0.12222678
'0:00.369',-0.07232663,-0.02838129,0.27191696,0.12222678
'0:00.370',-0.07291972,-0.02868587,0.27191696,0.09136553
'0:00.370',-0.07354246,-0.02868587,0.27191696,0.09136553
'0:00.370',-0.07413554,-0.02899045,0.27159950,0.09136553
'0:00.370',-0.07446174,-0.02899045,0.27159950,0.06091036
'0:00.370',-0.07505482,-0.02929503,0.27159950,0.06091036
'0:00.371',-0.07567756,-0.02929503,0.27130646,0.03045518
'0:00.371',-0.07597410,-0.02929503,0.27130646,0.03045518
'0:00.371',-0.07659684,-0.02929503,0.27130646,0.03045518
'0:00.371',-0.07689338,-0.02959961,0.27098900,0.03045518
'0:00.371',-0.07751612,-0.02959961,0.27098900,0.03045518
'0:00.372',-0.07781266,-0.02959961,0.27098900,0.03045518
'0:00.372',-0.07810920,-0.02959961,0.27069596,0.03045518
'0:00.372',-0.07840575,-0.02959961,0.27069596,0.03045518
'0:00.372',-0.07873194,-0.02959961,0.27069596,0.03045518
'0:00.372',-0.07902848,-0.02959961,0.27037850,0.03045518
'0:00.373',-0.07902848,-0.02959961,0.27037850,0.03045518
'0:00.373',-0.07932503,-0.02959961,0.27037850,0.03045518
'0:00.373',-0.07965122,-0.02959961,0.27008546,0.03045518
'0:00.373',-0.07965122,-0.02959961,0.27008546,0.06091036
'0:00.373',-0.07994777,-0.02929503,0.27008546,0.06091036
'0:00.374',-0.07994777,-0.02929503,0.26976800,0.06091036
'0:00.374',-0.08024431,-0.02929503,0.26976800,0.06091036
'0:00.374',-0.08024431,-0.02929503,0.26976800,0.06091036
'0:00.374',-0.08024431,-0.02929503,0.26947496,0.06091036
'0:00.374',-0.08024431,-0.02899045,0.26947496,0.03045518
'0:00.375',-0.08024431,-0.02899045,0.26947496,0.03045518
'0:00.375',-0.08024431,-0.02899045,0.26915750,0.00000000
'0:00.375',-0.08024431,-0.02868587,0.26915750,0.00000000
'0:00.375',-0.08024431,-0.02868587,0.26915750,-0.03045518
'0:00.375',-0.08024431,-0.02838129,0.26886446,-0.03045518
'0:00.376',-0.07994777,-0.02838129,0.26886446,-0.06091036
'0:00.376',-0.07994777,-0.02807671,0.26886446,-0.09136553
'0:00.376',-0.07965122,-0.02807671,0.26854699,-0.09136553
'0:00.376',-0.07965122,-0.02777213,0.26854699,-0.12222678
'0:00.376',-0.07932503,-0.02777213,0.26854699,-0.15268196
'0:00.377',-0.07902848,-0.02745371,0.26825395,-0.18313714
'0:00.377',-0.07873194,-0.02714913,0.26825395,-0.18313714
'0:00.377',-0.07873194,-0.02714913,0.26825395,-0.21359232
'0:00.377',-0.07840575,-0.02684455,0.26793649,-0.24404749
'0:00.377',-0.07810920,-0.02653997,0.26793649,-0.27450267
'0:00.378',-0.07781266,-0.02623539,0.26793649,-0.27450267
'0:00.378',-0.07751612,-0.02593081,0.26764345,-0.30536392
'0:00.378',-0.07718992,-0.02593081,0.26764345,-0.30536392
'0:00.378',-0.07659684,-0.02562623,0.26764345,-0.33581910
'0:00.378',-0.07627064,-0.02532165,0.26764345,-0.33581910
'0:00.379',-0.07597410,-0.02501707,0.26732599,-0.33581910
'0:00.379',-0.07567756,-0.02471249,0.26732599,-0.33581910
'0:00.379',-0.07538102,-0.02440791,0.26732599,-0.33581910
'0:00.379',-0.07475828,-0.02410333,0.26703295,-0.33581910
'0:00.379',-0.07446174,-0.02379875,0.26703295,-0.33581910
'0:00.380',-0.07413554,-0.02349417,0.26703295,-0.33581910
'0:00.380',-0.07354246,-0.02318959,0.26671549,-0.33581910
'0:00.380',-0.07321626,-0.02288501,0.26671549,-0.33581910
'0:00.380',-0.07262317,-0.02258043,0.26671549,-0.33581910
'0:00.380',-0.07232663,-0.02227585,0.26671549,-0.33581910
'0:00.381',-0.07200044,-0.02197127,0.26642245,-0.33581910
'0:00.381',-0.07140735,-0.02166669,0.26642245,-0.36627428
'0:00.381',-0.07108116,-0.02136211,0.26642245,-0.36627428
'0:00.381',-0.07048807,-0.02136211,0.26610499,-0.36627428
'0:00.381',-0.07019153,-0.02105753,0.26610499,-0.33581910
'0:00.382',-0.06956879,-0.02075295,0.26610499,-0.33581910
'0:00.382',-0.06927225,-0.02043453,0.26581195,-0.33581910
'0:00.382',-0.06864951,-0.02012995,0.26581195,-0.33581910
'0:00.382',-0.06805643,-0.01982537,0.26581195,-0.33581910
'0:00.382',-0.06773023,-0.01952079,0.26581195,-0.33581910
'0:00.383',-0.06713714,-0.01921621,0.26549449,-0.33581910
'0:00.383',-0.06681095,-0.01891163,0.26549449,-0.33581910
'0:00.383',-0.06621786,-0.01891163,0.26549449,-0.33581910
'0:00.383',-0.06559513,-0.01860705,0.26520145,-0.33581910
'0:00.383',-0.06500204,-0.01830247,0.26520145,-0.33581910
'0:00.384',-0.06467584,-0.01799789,0.26520145,-0.36627428
'0:00.384',-0.06408276,-0.01769331,0.26488399,-0.36627428
'0:00.384',-0.06346002,-0.01769331,0.26488399,-0.39672945
'0:00.384',-0.06286694,-0.01738873,0.26488399,-0.39672945
'0:00.384',-0.06254074,-0.01708415,0.26488399,-0.42718463
'0:00.385',-0.06194766,-0.01708415,0.26459095,-0.45763981
'0:00.385',-0.06132492,-0.01677957,0.26459095,-0.45763981
'0:00.385',-0.06073183,-0.01647499,0.26459095,-0.48809499
'0:00.385',-0.06010910,-0.01647499,0.26427349,-0.48809499
'0:00.385',-0.05948636,-0.01617041,0.26427349,-0.51895624
'0:00.386',-0.05889327,-0.01617041,0.26427349,-0.51895624
'0:00.386',-0.05827053,-0.01586583,0.26427349,-0.54941142
'0:00.386',-0.05797399,-0.01586583,0.26398045,-0.54941142
'0:00.386',-0.05735125,-0.01556125,0.26398045,-0.57986659
'0:00.386',-0.05675817,-0.01556125,0.26398045,-0.57986659
'0:00.387',-0.05613543,-0.01556125,0.26366299,-0.61032177
'0:00.387',-0.05554235,-0.01525667,0.26366299,-0.61032177
'0:00.387',-0.05521615,-0.01525667,0.26366299,-0.64077695
'0:00.387',-0.05462307,-0.01525667,0.26366299,-0.64077695
'0:00.387',-0.05400033,-0.01525667,0.26336995,-0.64077695
'0:00.388',-0.05370378,-0.01525667,0.26336995,-0.64077695
'0:00.388',-0.05308105,-0.01525667,0.26336995,-0.64077695
'0:00.388',-0.05278450,-0.01525667,0.26336995,-0.64077695
'0:00.388',-0.05248796,-0.01525667,0.26305249,-0.61032177
'0:00.388',-0.05186522,-0.01525667,0.26305249,-0.61032177
'0:00.389',-0.05156868,-0.01525667,0.26305249,-0.61032177
'0:00.389',-0.05127214,-0.01525667,0.26275945,-0.61032177
'0:00.389',-0.05094594,-0.01556125,0.26275945,-0.57986659
'0:00.389',-0.05064940,-0.01556125,0.26275945,-0.57986659
'0:00.389',-0.05035286,-0.01556125,0.26275945,-0.57986659
'0:00.390',-0.05002666,-0.01556125,0.26244199,-0.57986659
'0:00.390',-0.04973012,-0.01586583,0.26244199,-0.57986659
'0:00.390',-0.04943358,-0.01586583,0.26244199,-0.57986659
'0:00.390',-0.04943358,-0.01586583,0.26214895,-0.61032177
'0:00.390',-0.04910738,-0.01617041,0.26214895,-0.61032177
'0:00.391',-0.04881084,-0.01617041,0.26214895,-0.61032177
'0:00.391',-0.04881084,-0.01617041,0.26214895,-0.61032177
'0:00.391',-0.04851430,-0.01647499,0.26183149,-0.61032177
'0:00.391',-0.04851430,-0.01647499,0.26183149,-0.61032177
'0:00.391',-0.04821775,-0.01647499,0.26183149,-0.61032177
'0:00.392',-0.04821775,-0.01677957,0.26183149,-0.61032177
'0:00.392',-0.04821775,-0.01677957,0.26153845,-0.61032177
'0:00.392',-0.04821775,-0.01708415,0.26153845,-0.61032177
'0:00.392',-0.04821775,-0.01708415,0.26153845,-0.64077695
'0:00.392',-0.04821775,-0.01738873,0.26122099,-0.64077695
'0:00.393',-0.04851430,-0.01738873,0.26122099,-0.64077695
'0:00.393',-0.04851430,-0.01769331,0.26122099,-0.67123213
'0:00.393',-0.04851430,-0.01799789,0.26122099,-0.67123213
'0:00.393',-0.04881084,-0.01799789,0.26092795,-0.67123213
'0:00.393',-0.04881084,-0.01830247,0.26092795,-0.70209338
'0:00.394',-0.04910738,-0.01830247,0.26092795,-0.70209338
'0:00.394',-0.04943358,-0.01860705,0.26061049,-0.70209338
'0:00.394',-0.04973012,-0.01891163,0.26061049,-0.70209338
'0:00.394',-0.04973012,-0.01891163,0.26061049,-0.70209338
'0:00.394',-0.05002666,-0.01921621,0.26061049,-0.70209338
'0:00.395',-0.05035286,-0.01921621,0.26031745,-0.70209338
'0:00.395',-0.05064940,-0.01952079,0.26031745,-0.67123213
'0:00.395',-0.05094594,-0.01952079,0.26031745,-0.67123213
'0:00.395',-0.05127214,-0.01982537,0.26031745,-0.67123213
'0:00.395',-0.05186522,-0.01982537,0.25999999,-0.67123213
'0:00.396',-0.05216177,-0.02012995,0.25999999,-0.67123213
'0:00.396',-0.05248796,-0.02012995,0.25999999,-0.64077695
'0:00.396',-0.05278450,-0.02043453,0.25970695,-0.64077695
'0:00.396',-0.05340724,-0.02043453,0.25970695,-0.64077695
'0:00.396',-0.05370378,-0.02075295,0.25970695,-0.64077695
'0:00.397',-0.05400033,-0.02075295,0.25970695,-0.64077695
'0:00.397',-0.05462307,-0.02075295,0.25938949,-0.64077695
'0:00.397',-0.05491961,-0.02105753,0.25938949,-0.64077695
'0:00.397',-0.05554235,-0.02105753,0.25938949,-0.64077695
'0:00.397',-0.05613543,-0.02105753,0.25938949,-0.61032177
'0:00.398',-0.05643197,-0.02136211,0.25909645,-0.61032177
'0:00.398',-0.05705471,-0.02136211,0.25909645,-0.61032177
'0:00.398',-0.05767745,-0.02136211,0.25909645,-0.61032177
'0:00.398',-0.05827053,-0.02166669,0.25877899,-0.61032177
'0:00.398',-0.05859673,-0.02166669,0.25877899,-0.57986659
'0:00.399',-0.05918981,-0.02166669,0.25877899,-0.57986659
'0:00.399',-0.05981255,-0.02166669,0.25877899,-0.57986659
'0:00.399',-0.06040564,-0.02166669,0.25848595,-0.54941142
'0:00.399',-0.06132492,-0.02197127,0.25848595,-0.54941142
'0:00.399',-0.06194766,-0.02197127,0.25848595,-0.54941142
'0:00.400',-0.06254074,-0.02197127,0.25816848,-0.54941142
'0:00.400',-0.06316348,-0.02197127,0.25816848,-0.54941142
'0:00.400',-0.06375656,-0.02197127,0.25816848,-0.54941142
'0:00.400',-0.06467584,-0.02197127,0.25816848,-0.54941142
'0:00.400',-0.06529858,-0.02197127,0.25787544,-0.54941142
'0:00.401',-0.06592132,-0.02227585,0.25787544,-0.54941142
'0:00.401',-0.06681095,-0.02227585,0.25787544,-0.54941142
'0:00.401',-0.06743369,-0.02227585,0.25787544,-0.51895624
'0:00.401',-0.06805643,-0.02227585,0.25755798,-0.51895624
'0:00.401',-0.06894605,-0.02227585,0.25755798,-0.51895624
'0:00.402',-0.06956879,-0.02227585,0.25755798,-0.51895624
'0:00.402',-0.07048807,-0.02197127,0.25726494,-0.51895624
'0:00.402',-0.07108116,-0.02197127,0.25726494,-0.51895624
'0:00.402',-0.07170389,-0.02197127,0.25726494,-0.48809499
'0:00.402',-0.07262317,-0.02197127,0.25726494,-0.48809499
'0:00.403',-0.07321626,-0.02197127,0.25694748,-0.48809499
'0:00.403',-0.07383900,-0.02197127,0.25694748,-0.45763981
'0:00.403',-0.07446174,-0.02197127,0.25694748,-0.45763981
'0:00.403',-0.07538102,-0.02197127,0.25665444,-0.42718463
'0:00.403',-0.07597410,-0.02197127,0.25665444,-0.42718463
'0:00.404',-0.07659684,-0.02197127,0.25665444,-0.39672945
'0:00.404',-0.07718992,-0.02166669,0.25665444,-0.39672945
'0:00.404',-0.07781266,-0.02166669,0.25633698,-0.39672945
'0:00.404',-0.07840575,-0.02166669,0.25633698,-0.39672945
'0:00.404',-0.07902848,-0.02166669,0.25633698,-0.36627428
'0:00.405',-0.07965122,-0.02166669,0.25604394,-0.36627428
'0:00.405',-0.08024431,-0.02166669,0.25604394,-0.36627428
'0:00.405',-0.08054085,-0.02166669,0.25604394,-0.36627428
'0:00.405',-0.08116359,-0.02136211,0.25604394,-0.36627428
'0:00.405',-0.08178633,-0.02136211,0.25572648,-0.36627428
'0:00.406',-0.08208287,-0.02136211,0.25572648,-0.36627428
'0:00.406',-0.08237941,-0.02136211,0.25572648,-0.36627428
'0:00.406',-0.08300215,-0.02136211,0.25543344,-0.33581910
'0:00.406',-0.08329869,-0.02136211,0.25543344,-0.33581910
'0:00.406',-0.08359523,-0.02136211,0.25543344,-0.33581910
'0:00.407',-0.08392143,-0.02136211,0.25543344,-0.33581910
'0:00.407',-0.08421797,-0.02136211,0.25511598,-0.33581910
'0:00.407',-0.08451451,-0.02136211,0.25511598,-0.30536392
'0:00.407',-0.08451451,-0.02136211,0.25511598,-0.30536392
'0:00.407',-0.08484071,-0.02136211,0.25482294,-0.27450267
'0:00.408',-0.08513725,-0.02136211,0.25482294,-0.27450267
'0:00.408',-0.08513725,-0.02136211,0.25482294,-0.24404749
'0:00.408',-0.08513725,-0.02136211,0.25482294,-0.24404749
'0:00.408',-0.08543380,-0.02136211,0.25450548,-0.21359232
'0:00.408',-0.08543380,-0.02136211,0.25450548,-0.18313714
'0:00.409',-0.08543380,-0.02136211,0.25450548,-0.18313714
'0:00.409',-0.08543380,-0.02136211,0.25421244,-0.18313714
'0:00.409',-0.08543380,-0.02136211,0.25421244,-0.18313714
'0:00.409',-0.08543380,-0.02136211,0.25421244,-0.18313714
'0:00.409',-0.08513725,-0.02105753,0.25421244,-0.15268196
'0:00.410',-0.08513725,-0.02105753,0.25389498,-0.18313714
'0:00.410',-0.08513725,-0.02105753,0.25389498,-0.15268196
'0:00.410',-0.08484071,-0.02105753,0.25389498,-0.15268196
'0:00.410',-0.08451451,-0.02105753,0.25360194,-0.15268196
'0:00.410',-0.08451451,-0.02105753,0.25360194,-0.15268196
'0:00.411',-0.08421797,-0.02105753,0.25360194,-0.15268196
'0:00.411',-0.08392143,-0.02105753,0.25328448,-0.15268196
'0:00.411',-0.08359523,-0.02105753,0.25328448,-0.15268196
'0:00.411',-0.08329869,-0.02105753,0.25328448,-0.15268196
'0:00.411',-0.08300215,-0.02105753,0.25328448,-0.15268196
'0:00.412',-0.08270561,-0.02105753,0.25299144,-0.15268196
'0:00.412',-0.08208287,-0.02105753,0.25299144,-0.15268196
'0:00.412',-0.08178633,-0.02105753,0.25299144,-0.12222678
'0:00.412',-0.08146013,-0.02105753,0.25267398,-0.12222678
'0:00.412',-0.08086705,-0.02105753,0.25267398,-0.09136553
'0:00.413',-0.08054085,-0.02105753,0.25267398,-0.09136553
'0:00.413',-0.07994777,-0.02105753,0.25238094,-0.06091036
'0:00.413',-0.07932503,-0.02105753,0.25238094,-0.06091036
'0:00.413',-0.07873194,-0.02105753,0.25238094,-0.03045518
'0:00.413',-0.07840575,-0.02105753,0.25238094,0.00000000
'0:00.414',-0.07781266,-0.02105753,0.25206348,0.03045518
'0:00.414',-0.07718992,-0.02105753,0.25206348,0.03045518
'0:00.414',-0.07659684,-0.02105753,0.25206348,0.06091036
'0:00.414',-0.07567756,-0.02105753,0.25177044,0.06091036
'0:00.414',-0.07505482,-0.02105753,0.25177044,0.09136553
'0:00.415',-0.07446174,-0.02105753,0.25177044,0.09136553
'0:00.415',-0.07383900,-0.02105753,0.25145298,0.12222678
'0:00.415',-0.07291972,-0.02105753,0.25145298,0.12222678
'0:00.415',-0.07232663,-0.02105753,0.25145298,0.12222678
'0:00.415',-0.07170389,-0.02105753,0.25145298,0.12222678
'0:00.416',-0.07078461,-0.02105753,0.25115994,0.15268196
'0:00.416',-0.07019153,-0.02105753,0.25115994,0.15268196
'0:00.416',-0.06927225,-0.02075295,0.25115994,0.15268196
'0:00.416',-0.06835297,-0.02075295,0.25084248,0.18313714
'0:00.416',-0.06773023,-0.02075295,0.25084248,0.18313714
'0:00.417',-0.06681095,-0.02075295,0.25084248,0.18313714
'0:00.417',-0.06621786,-0.02075295,0.25054944,0.21359232
'0:00.417',-0.06529858,-0.02075295,0.25054944,0.21359232
'0:00.417',-0.06467584,-0.02043453,0.25054944,0.24404749
'0:00.417',-0.06375656,-0.02043453,0.25054944,0.24404749
'0:00.418',-0.06316348,-0.02043453,0.25023198,0.24404749
'0:00.418',-0.06224420,-0.02012995,0.25023198,0.27450267
'0:00.418',-0.06162146,-0.02012995,0.25023198,0.27450267
'0:00.418',-0.06073183,-0.02012995,0.24993894,0.27450267
'0:00.418',-0.06010910,-0.02012995,0.24993894,0.30536392
'0:00.419',-0.05948636,-0.01982537,0.24993894,0.30536392
'0:00.419',-0.05859673,-0.01982537,0.24962148,0.27450267
